%AERI measurement at Southern Great Plains site
%07/22/2001, GMT = 0522
%Wavenumber (cm^-1)  Radiance (mW/m^2/sr/cm^-1)
520.237	161.958
520.719	155.101
521.201	158.653
521.683	157.224
522.165	161.343
522.648	156.909
523.13	156.224
523.612	157.269
524.094	155.419
524.576	152.992
525.058	157.244
525.54	154.539
526.023	155.276
526.505	159.191
526.987	157.826
527.469	157.167
527.951	159.504
528.433	158.399
528.916	157.565
529.398	155.97
529.88	156.66
530.362	158.313
530.844	155.931
531.326	155.104
531.808	153.249
532.291	157.47
532.773	156.1
533.255	154.985
533.737	158.072
534.219	156.962
534.701	159.621
535.183	157.263
535.666	157.541
536.148	157.729
536.63	157.652
537.112	157.742
537.594	158.77
538.076	157.015
538.558	154.493
539.041	158.031
539.523	158.433
540.005	156.631
540.487	158.179
540.969	158.296
541.451	158.518
541.933	155.678
542.416	157.942
542.898	157.159
543.38	157.248
543.862	158.805
544.344	159.693
544.826	159.34
545.308	158.015
545.791	157.765
546.273	157.824
546.755	159.989
547.237	156.148
547.719	158.848
548.201	158.38
548.684	158.765
549.166	160.235
549.648	158.141
550.13	159.758
550.612	158.341
551.094	159.911
551.576	157.044
552.059	158.719
552.541	158.649
553.023	157.242
553.505	161.439
553.987	157.892
554.469	158.572
554.951	159.371
555.434	154.974
555.916	160.523
556.398	155.986
556.88	159.16
557.362	158.621
557.844	159.521
558.326	157.493
558.809	154.86
559.291	158.328
559.773	158.195
560.255	157.135
560.737	157.533
561.219	156.437
561.702	155.542
562.184	157.804
562.666	158.477
563.148	158.921
563.63	160.812
564.112	158.727
564.594	159.025
565.077	157.629
565.559	159.047
566.041	158.6
566.523	160.257
567.005	159.871
567.487	160.709
567.969	158.638
568.452	159.918
568.934	158.803
569.416	159.755
569.898	159.532
570.38	159.387
570.862	158.75
571.344	159.448
571.827	158.863
572.309	158.729
572.791	158.611
573.273	159.368
573.755	157.852
574.237	159.635
574.719	160.292
575.202	159.494
575.684	158.719
576.166	159.788
576.648	160.214
577.13	159.54
577.612	159.929
578.094	159.421
578.577	159.264
579.059	160.083
579.541	158.307
580.023	162.197
580.505	158.059
580.987	159.579
581.47	160.231
581.952	159.581
582.434	160.637
582.916	157.948
583.398	159.426
583.88	159.707
584.362	159.763
584.845	159.532
585.327	158.72
585.809	159.599
586.291	157.859
586.773	159.14
587.255	158.104
587.737	158.592
588.22	158.593
588.702	159.1
589.184	158.784
589.666	159.419
590.148	159.574
590.63	160.87
591.112	160.083
591.595	158.668
592.077	159.21
592.559	160.095
593.041	159.506
593.523	159.36
594.005	158.887
594.488	159.829
594.97	159.006
595.452	160.174
595.934	158.838
596.416	158.617
596.898	160.254
597.38	159.047
597.863	158.672
598.345	159.535
598.827	159.018
599.309	159.558
599.791	159.61
600.273	159.53
600.755	159.808
601.238	159.723
601.72	158.823
602.202	157.475
602.684	157.794
603.166	159.799
603.648	157.893
604.13	159.827
604.613	160.267
605.095	158.245
605.577	157.678
606.059	158.695
606.541	158.059
607.023	155.927
607.505	158.128
607.988	159.583
608.47	157.349
608.952	158.12
609.434	158.354
609.916	158.416
610.398	157.321
610.88	159.068
611.363	157.456
611.845	157.104
612.327	158.705
612.809	160.243
613.291	159.816
613.773	158.149
614.256	159.785
614.738	159.44
615.22	159.594
615.702	159.202
616.184	160.339
616.666	160.349
617.148	159.922
617.631	160.16
618.113	159.698
618.595	157.816
619.077	157.996
619.559	158.628
620.041	158.765
620.523	159.7
621.006	159.451
621.488	158.074
621.97	157.294
622.452	159.463
622.934	157.463
623.416	158.281
623.898	159.136
624.381	159.513
624.863	159.721
625.345	159.998
625.827	159.43
626.309	159.239
626.791	159.771
627.274	159.198
627.756	159.104
628.238	159.61
628.72	158.782
629.202	159.722
629.684	158.97
630.166	158.871
630.649	158.955
631.131	159.301
631.613	158.643
632.095	159.172
632.577	159.592
633.059	159.623
633.541	159.434
634.024	159.33
634.506	158.845
634.988	159.142
635.47	158.453
635.952	159.47
636.434	159.267
636.917	159.176
637.399	158.769
637.881	158.67
638.363	159.223
638.845	159.35
639.327	158.872
639.809	158.899
640.292	158.67
640.774	159.105
641.256	158.585
641.738	159.262
642.22	158.705
642.702	159.625
643.184	158.66
643.667	158.823
644.149	158.814
644.631	159.034
645.113	158.404
645.595	158.816
646.077	158.691
646.559	158.791
647.042	158.311
647.524	158.672
648.006	158.272
648.488	158.783
648.97	158.164
649.452	158.763
649.934	158.572
650.417	158.509
650.899	158.877
651.381	158.679
651.863	158.21
652.345	158.315
652.827	158.139
653.309	158.586
653.792	158.415
654.274	158.809
654.756	157.749
655.238	158.103
655.72	158.394
656.202	158.007
656.685	157.739
657.167	158.386
657.649	158.011
658.131	157.671
658.613	158.066
659.095	157.822
659.577	157.158
660.06	157.991
660.542	157.763
661.024	158.243
661.506	157.369
661.988	158.171
662.47	157.375
662.952	157.524
663.435	157.775
663.917	157.898
664.399	157.602
664.881	157.831
665.363	157.551
665.845	157.925
666.327	157.339
666.81	157.633
667.292	156.365
667.774	154.631
668.256	154.464
668.738	155.964
669.22	156.444
669.703	157.088
670.185	157.12
670.667	157.43
671.149	157.261
671.631	157.28
672.113	157.056
672.595	156.976
673.078	156.589
673.56	157.299
674.042	156.662
674.524	157.137
675.006	156.785
675.488	157.116
675.97	156.312
676.453	156.522
676.935	156.9
677.417	156.422
677.899	156.839
678.381	157.089
678.863	156.119
679.345	156.189
679.828	156.14
680.31	156.495
680.792	155.694
681.274	156.564
681.756	156.14
682.238	156.046
682.72	156.197
683.203	156.342
683.685	155.943
684.167	155.909
684.649	156.165
685.131	155.73
685.613	155.749
686.095	156.307
686.578	155.785
687.06	155.723
687.542	155.798
688.024	155.743
688.506	155.83
688.988	155.037
689.471	155.77
689.953	156.12
690.435	154.936
690.917	156.013
691.399	155.502
691.881	155.333
692.363	155.298
692.846	155.605
693.328	155.15
693.81	155.448
694.292	155.364
694.774	155.272
695.256	155.341
695.738	155.451
696.221	155.048
696.703	155.067
697.185	154.967
697.667	155.002
698.149	154.559
698.631	154.834
699.113	154.433
699.596	154.48
700.078	154.717
700.56	154.809
701.042	154.002
701.524	154.753
702.006	154.207
702.489	154.487
702.971	153.89
703.453	154.692
703.935	154.418
704.417	153.95
704.899	154.022
705.381	154.528
705.864	154.121
706.346	153.9
706.828	153.653
707.31	154.117
707.792	153.686
708.274	153.499
708.756	152.675
709.239	152.647
709.721	152.224
710.203	153.109
710.685	151.456
711.167	152.025
711.649	152.138
712.131	151.903
712.614	149.262
713.096	152.803
713.578	153.762
714.06	151.464
714.542	149.43
715.024	152.631
715.506	147.909
715.989	143.003
716.471	151.23
716.953	150.25
717.435	145.3
717.917	150.107
718.399	152.556
718.881	152.372
719.364	152.804
719.846	152.839
720.328	152.856
720.81	152.185
721.292	151.363
721.774	145.58
722.257	143.247
722.739	139.087
723.221	134.525
723.703	144.487
724.185	141.54
724.667	130.639
725.149	143.813
725.632	145.356
726.114	130.832
726.596	140.271
727.078	149.612
727.56	133.992
728.042	138.08
728.524	149.974
729.007	150.439
729.489	150.401
729.971	148.735
730.453	151.327
730.935	150.023
731.417	150.29
731.899	146.492
732.382	135.346
732.864	142.547
733.346	148.878
733.828	133.117
734.31	139.116
734.792	149.419
735.275	136.294
735.757	134.969
736.239	149.406
736.721	137.308
737.203	134.149
737.685	147.378
738.167	141.046
738.65	132.797
739.132	147.437
739.614	143.946
740.096	145.32
740.578	150.87
741.06	148.928
741.542	148.728
742.025	147.05
742.507	149.743
742.989	136.121
743.471	139.64
743.953	149.885
744.435	148.19
744.917	149.782
745.4	146.219
745.882	126.048
746.364	124.75
746.846	145.976
747.328	124.063
747.81	131.106
748.292	150.181
748.775	136.992
749.257	119.217
749.739	141.299
750.221	125.425
750.703	112.024
751.185	139.892
751.667	131.333
752.15	136.674
752.632	146.004
753.114	127.284
753.596	135.004
754.078	146.492
754.56	149.324
755.043	134.916
755.525	127.177
756.007	143.583
756.489	108.802
756.971	120.094
757.453	130.127
757.935	99.3788
758.418	106.921
758.9	123.099
759.382	100.296
759.864	99.6899
760.346	129.565
760.828	107.63
761.31	103.779
761.793	123.603
762.275	98.226
762.757	95.0988
763.239	112.578
763.721	100.629
764.203	91.6258
764.685	110.388
765.168	102.474
765.65	90.0848
766.132	107.71
766.614	98.2057
767.096	110.908
767.578	117.292
768.061	96.9115
768.543	111.809
769.025	134.861
769.507	110.158
769.989	136.411
770.471	116.135
770.953	97.3043
771.436	99.1216
771.918	92.233
772.4	97.2065
772.882	94.1345
773.364	93.9992
773.846	93.8637
774.328	102.072
774.811	99.8072
775.293	134.873
775.775	137.318
776.257	114.326
776.739	139.205
777.221	140.028
777.703	105.969
778.186	100.576
778.668	99.8295
779.15	135.014
779.632	118.152
780.114	91.2197
780.596	94.6542
781.078	87.9428
781.561	90.9321
782.043	91.4005
782.525	92.366
783.007	95.1274
783.489	106.566
783.971	129.257
784.453	146.606
784.936	129.836
785.418	105.571
785.9	93.5067
786.382	90.1244
786.864	88.5019
787.346	87.9401
787.829	88.4499
788.311	86.5152
788.793	85.0068
789.275	84.4316
789.757	86.021
790.239	84.8209
790.721	84.2498
791.204	92.1478
791.686	125.421
792.168	111.806
792.65	96.5193
793.132	98.037
793.614	126.931
794.096	137.312
794.579	104.117
795.061	109.963
795.543	133.387
796.025	144.065
796.507	120.981
796.989	111.131
797.471	130.391
797.954	131.568
798.436	138.875
798.918	144.385
799.4	116.619
799.882	98.1733
800.364	90.8679
800.847	86.3846
801.329	87.3287
801.811	90.2779
802.293	87.8999
802.775	120.99
803.257	141.126
803.739	129.592
804.222	92.7538
804.704	89.3002
805.186	78.9806
805.668	89.8126
806.15	101.622
806.632	90.2595
807.114	84.6568
807.597	86.1652
808.079	136.026
808.561	109.284
809.043	80.2338
809.525	83.0743
810.007	74.2815
810.49	78.7099
810.972	77.2626
811.454	77.5997
811.936	74.0763
812.418	81.4387
812.9	75.9953
813.382	93.0708
813.865	122.965
814.347	130.167
814.829	109.039
815.311	80.3342
815.793	80.5524
816.275	76.4918
816.757	79.0723
817.24	72.5799
817.722	74.4602
818.204	71.2335
818.686	75.122
819.168	71.3084
819.65	72.1897
820.132	72.1039
820.615	73.037
821.097	70.8994
821.579	72.1985
822.061	72.0778
822.543	73.1628
823.025	73.1021
823.507	70.5108
823.99	72.8924
824.472	69.2178
824.954	100.143
825.436	96.8466
825.918	67.7048
826.4	75.8328
826.882	84.4277
827.365	117.083
827.847	114.63
828.329	79.0259
828.811	70.6757
829.293	71.2914
829.775	68.5212
830.258	69.5876
830.74	69.2134
831.222	69.7711
831.704	66.7515
832.186	68.8051
832.668	67.4665
833.15	69.0784
833.633	66.2071
834.115	69.0973
834.597	66.2321
835.079	72.6846
835.561	93.7457
836.043	71.3478
836.525	66.1531
837.008	68.2392
837.49	65.6963
837.972	70.5248
838.454	67.4687
838.936	69.821
839.418	80.56
839.9	130.333
840.383	98.6086
840.865	73.4912
841.347	70.1518
841.829	86.0006
842.311	73.3475
842.793	65.0344
843.276	66.44
843.758	65.5932
844.24	65.8535
844.722	65.6002
845.204	65.3152
845.686	68.9401
846.168	65.7075
846.651	65.7937
847.133	64.5664
847.615	65.775
848.097	65.7713
848.579	68.326
849.061	77.0451
849.543	123.352
850.026	87.458
850.508	68.5847
850.99	71.8174
851.472	72.4224
851.954	91.7373
852.436	133.699
852.918	121.69
853.401	104.389
853.883	76.9222
854.365	115.532
854.847	112.59
855.329	69.5231
855.811	68.2061
856.293	62.8745
856.776	63.3176
857.258	62.3569
857.74	60.8577
858.222	69.0469
858.704	78.9993
859.186	57.9056
859.668	75.3435
860.151	59.6378
860.633	62.5992
861.115	59.2272
861.597	61.5055
862.079	58.5347
862.561	62.0136
863.044	58.5643
863.526	61.3189
864.008	59.3005
864.49	65.8089
864.972	94.0679
865.454	109.688
865.936	68.1715
866.419	60.3722
866.901	59.7153
867.383	58.9489
867.865	58.7025
868.347	59.6271
868.829	57.6257
869.311	58.9049
869.794	58.9426
870.276	61.028
870.758	70.8474
871.24	115.922
871.722	75.369
872.204	59.5971
872.686	59.1328
873.169	57.9227
873.651	57.3723
874.133	57.3952
874.615	56.8507
875.097	56.9281
875.579	57.8113
876.062	58.7518
876.544	56.6992
877.026	57.9529
877.508	57.5834
877.99	63.152
878.472	104.117
878.954	76.7673
879.437	53.2729
879.919	61.1188
880.401	51.126
880.883	73.2736
881.365	65.0285
881.847	56.2134
882.329	53.7718
882.812	68.9805
883.294	74.6554
883.776	94.5981
884.258	73.6652
884.74	51.0629
885.222	58.9238
885.704	52.6182
886.187	59.4497
886.669	60.243
887.151	110.832
887.633	76.2423
888.115	58.1399
888.597	91.5934
889.079	63.0774
889.562	52.2883
890.044	76.7863
890.526	54.4827
891.008	65.1924
891.49	71.6766
891.972	49.3466
892.454	55.1119
892.937	50.4424
893.419	53.9011
893.901	49.9242
894.383	53.3263
894.865	50.6355
895.347	53.2765
895.83	51.3983
896.312	58.225
896.794	52.6541
897.276	53.8692
897.758	64.7242
898.24	51.9963
898.722	50.8624
899.205	51.4582
899.687	50.1592
900.169	50.7603
900.651	49.4591
901.133	50.724
901.615	48.6182
902.097	51.7058
902.58	50.9531
903.062	50.9725
903.544	48.1127
904.026	51.8934
904.508	47.2712
904.99	53.3646
905.472	51.7907
905.955	65.6316
906.437	79.8202
906.919	56.502
907.401	50.5379
907.883	56.3081
908.365	60.3764
908.848	108.327
909.33	84.0095
909.812	52.6757
910.294	67.7568
910.776	54.4885
911.258	51.3142
911.74	47.8443
912.223	49.6357
912.705	49.0481
913.187	47.1031
913.669	58.9198
914.151	68.9502
914.633	45.1696
915.115	51.9314
915.598	43.6894
916.08	50.2631
916.562	44.7166
917.044	50.1221
917.526	44.0108
918.008	52.1794
918.49	68.2475
918.973	51.2595
919.455	43.569
919.937	50.458
920.419	43.0454
920.901	54.8147
921.383	64.5555
921.865	85.9822
922.348	86.519
922.83	50.4277
923.312	48.9564
923.794	47.9172
924.276	43.7737
924.758	75.6092
925.24	79.6239
925.723	44.5528
926.205	47.9831
926.687	43.6927
927.169	47.6895
927.651	43.8937
928.133	44.7219
928.616	52.8954
929.098	59.315
929.58	41.7469
930.062	46.4459
930.544	42.1698
931.026	49.0851
931.508	42.526
931.991	47.0101
932.473	44.1394
932.955	46.8996
933.437	41.8505
933.919	43.4534
934.401	41.4788
934.883	47.5952
935.366	41.5648
935.848	42.1521
936.33	41.4863
936.812	46.7051
937.294	45.3918
937.776	42.7147
938.258	41.782
938.741	46.6235
939.223	39.7348
939.705	42.4126
940.187	41.532
940.669	54.3222
941.151	58.2616
941.634	39.6933
942.116	44.3372
942.598	45.1002
943.08	38.9592
943.562	42.0146
944.044	45.0154
944.526	53.7702
945.009	55.3917
945.491	40.1031
945.973	47.094
946.455	43.1124
946.937	45.5522
947.419	41.5356
947.901	72.1962
948.384	95.6975
948.866	43.8465
949.348	48.7038
949.83	40.7057
950.312	39.6968
950.794	38.7156
951.276	46.9246
951.759	35.5726
952.241	41.6947
952.723	38.6822
953.205	69.0795
953.687	52.2678
954.169	44.1731
954.651	43.4077
955.134	60.6275
955.616	65.8447
956.098	42.5248
956.58	39.139
957.062	35.6104
957.544	39.3646
958.026	38.5368
958.509	36.0229
958.991	46.9389
959.473	52.5648
959.955	42.011
960.437	40.8341
960.919	40.0535
961.402	36.9696
961.884	40.9719
962.366	35.9234
962.848	36.1317
963.33	37.465
963.812	35.7906
964.294	34.6269
964.777	40.9649
965.259	33.9705
965.741	48.1496
966.223	44.7802
966.705	50.6333
967.187	47.8162
967.669	37.9435
968.152	39.5433
968.634	31.6599
969.116	44.0694
969.598	32.9203
970.08	40.2785
970.562	47.8592
971.044	44.8054
971.527	67.2598
972.009	47.6889
972.491	34.723
972.973	40.6829
973.455	65.8861
973.937	59.7344
974.42	43.4792
974.902	40.4991
975.384	35.733
975.866	76.936
976.348	50.9249
976.83	32.7866
977.312	65.0478
977.795	42.1322
978.277	37.3232
978.759	39.6676
979.241	32.7879
979.723	39.3831
980.205	32.4246
980.687	36.7104
981.17	38.4266
981.652	37.5778
982.134	39.2438
982.616	32.9286
983.098	35.5327
983.58	34.8093
984.062	42.8884
984.545	37.9286
985.027	31.1282
985.509	36.2119
985.991	31.2247
986.473	35.0887
986.955	31.1016
987.438	34.2313
987.92	31.9003
988.402	32.5728
988.884	34.1161
989.366	32.7352
989.848	34.4766
990.33	37.3407
990.812	31.5131
991.295	32.608
991.777	33.0054
992.259	32.5419
992.741	32.6991
993.223	33.8318
993.705	30.4169
994.188	35.444
994.67	35.1445
995.152	32.4596
995.634	34.9008
996.116	31.6472
996.598	32.437
997.08	33.6095
997.563	34.1986
998.045	32.8087
998.527	44.3994
999.009	51.4159
999.491	29.4603
999.973	45.6717
1000.46	48.5616
1000.94	36.805
1001.42	33.8028
1001.9	33.7718
1002.38	35.7962
1002.87	32.0616
1003.35	41.4346
1003.83	44.497
1004.31	37.0818
1004.79	39.3769
1005.28	31.3931
1005.76	37.8465
1006.24	32.8961
1006.72	36.6022
1007.21	41.2402
1007.69	38.6851
1008.17	33.1341
1008.65	39.1478
1009.13	30.2227
1009.62	51.4868
1010.1	62.6356
1010.58	59.217
1011.06	56.5572
1011.54	35.9608
1012.03	43.6525
1012.51	34.1254
1012.99	39.5312
1013.47	38.0913
1013.96	45.6032
1014.44	86.3965
1014.92	52.4997
1015.4	38.4334
1015.88	39.6597
1016.37	39.7065
1016.85	41.5125
1017.33	51.7695
1017.81	80.9201
1018.29	44.9853
1018.78	43.9962
1019.26	39.5723
1019.74	44.3267
1020.22	39.2047
1020.71	41.7462
1021.19	40.8096
1021.67	40.466
1022.15	43.591
1022.63	39.8341
1023.12	42.7548
1023.6	38.5963
1024.08	40.1715
1024.56	40.7718
1025.04	42.4953
1025.53	40.6408
1026.01	38.6242
1026.49	40.5068
1026.97	41.7857
1027.46	42.4024
1027.94	46.397
1028.42	77.1648
1028.9	47.9332
1029.38	70.2343
1029.87	60.188
1030.35	48.878
1030.83	53.822
1031.31	38.9378
1031.8	43.9855
1032.28	44.8728
1032.76	50.9695
1033.24	42.6399
1033.72	41.2182
1034.21	37.9526
1034.69	42.7614
1035.17	40.8809
1035.65	41.2517
1036.13	37.1256
1036.62	41.3861
1037.1	39.9748
1037.58	43.8876
1038.06	42.2621
1038.55	43.5938
1039.03	44.8472
1039.51	69.5817
1039.99	42.6821
1040.47	43.2133
1040.96	41.8535
1041.44	46.7161
1041.92	31.301
1042.4	44.9489
1042.88	39.7436
1043.37	30.7706
1043.85	26.9746
1044.33	28.9636
1044.81	36.3639
1045.3	34.4933
1045.78	30.0943
1046.26	38.0485
1046.74	39.9555
1047.22	39.955
1047.71	37.4
1048.19	44.2824
1048.67	39.4763
1049.15	65.7533
1049.63	49.477
1050.12	47.4346
1050.6	51.6451
1051.08	61.1578
1051.56	55.5872
1052.05	47.4576
1052.53	48.4939
1053.01	39.2964
1053.49	48.7471
1053.97	48.418
1054.46	42.8739
1054.94	45.0294
1055.42	63.9522
1055.9	53.7054
1056.38	43.4441
1056.87	40.4749
1057.35	49.8503
1057.83	37.7732
1058.31	47.6956
1058.8	54.2048
1059.28	39.5768
1059.76	51.5027
1060.24	65.977
1060.72	37.662
1061.21	40.4592
1061.69	36.318
1062.17	42.6284
1062.65	60.5688
1063.13	35.9235
1063.62	35.5136
1064.1	30.7758
1064.58	34.9362
1065.06	33.7042
1065.55	44.7764
1066.03	88.1125
1066.51	72.1125
1066.99	33.2088
1067.47	35.0584
1067.96	26.0892
1068.44	26.8276
1068.92	29.9438
1069.4	27.2556
1069.88	20.3652
1070.37	32.5384
1070.85	22.9658
1071.33	25.432
1071.81	27.2141
1072.3	40.4165
1072.78	43.0312
1073.26	34.0578
1073.74	29.4575
1074.22	70.6915
1074.71	65.4005
1075.19	21.8063
1075.67	32.8965
1076.15	38.4384
1076.63	24.2218
1077.12	29.744
1077.6	28.3211
1078.08	19.1302
1078.56	32.2223
1079.05	21.0139
1079.53	25.9004
1080.01	29.1773
1080.49	20.2685
1080.97	31.8938
1081.46	32.4674
1081.94	22.3615
1082.42	29.7911
1082.9	18.271
1083.38	29.2347
1083.87	21.518
1084.35	26.7145
1084.83	25.735
1085.31	40.3598
1085.8	35.2328
1086.28	18.7992
1086.76	26.4494
1087.24	21.4502
1087.72	27.9322
1088.21	27.7817
1088.69	21.6483
1089.17	24.9451
1089.65	21.7578
1090.13	28.0016
1090.62	31.8838
1091.1	78.2237
1091.58	52.6931
1092.06	24.6516
1092.55	25.3231
1093.03	21.402
1093.51	23.3769
1093.99	20.8106
1094.47	22.4504
1094.96	20.0446
1095.44	22.1552
1095.92	20.0177
1096.4	22.3233
1096.88	20.0073
1097.37	22.4728
1097.85	19.9923
1098.33	24.6489
1098.81	22.3744
1099.3	49.8316
1099.78	73.5169
1100.26	33.1751
1100.74	27.7559
1101.22	64.3191
1101.71	63.8369
1102.19	21.567
1102.67	30.2151
1103.15	19.1489
1103.64	24.2088
1104.12	18.8607
1104.6	26.1981
1105.08	24.6043
1105.56	29.7438
1106.05	34.6662
1106.53	79.0744
1107.01	70.5132
1107.49	32.6758
1107.97	25.9207
1108.46	27.551
1108.94	21.3873
1109.42	22.343
1109.9	21.6758
1110.39	29.7953
1110.87	33.0659
1111.35	76.3619
1111.83	62.0175
1112.31	26.4645
1112.8	25.2426
1113.28	19.8013
1113.76	20.9137
1114.24	21.0089
1114.72	23.7908
1115.21	21.4637
1115.69	20.6873
1116.17	19.1792
1116.65	22.5726
1117.14	22.4421
1117.62	42.9224
1118.1	23.4882
1118.58	23.4705
1119.06	21.9062
1119.55	23.6439
1120.03	25.4533
1120.51	49.2603
1120.99	85.0531
1121.47	68.7357
1121.96	33.1008
1122.44	25.518
1122.92	20.7472
1123.4	21.6072
1123.89	25.7755
1124.37	19.3666
1124.85	19.3687
1125.33	18.2058
1125.81	20.6961
1126.3	18.7037
1126.78	18.7843
1127.26	18.5751
1127.74	18.2015
1128.22	18.1184
1128.71	18.9035
1129.19	17.6731
1129.67	21.6013
1130.15	21.8713
1130.64	18.2015
1131.12	18.7463
1131.6	19.8557
1132.08	22.597
1132.56	20.8692
1133.05	25.9145
1133.53	25.8549
1134.01	31.3138
1134.49	35.0856
1134.97	54.7644
1135.46	79.2994
1135.94	80.9209
1136.42	61.3559
1136.9	53.4104
1137.39	80.2449
1137.87	53.0626
1138.35	28.9643
1138.83	24.2187
1139.31	21.1169
1139.8	20.8395
1140.28	23.3215
1140.76	17.1561
1141.24	28.7723
1141.72	34.3301
1142.21	15.893
1142.69	20.0187
1143.17	16.747
1143.65	22.312
1144.14	16.7238
1144.62	19.2732
1145.1	18.2704
1145.58	19.6699
1146.06	18.3069
1146.55	19.8502
1147.03	19.8211
1147.51	22.9195
1147.99	22.2952
1148.47	26.5641
1148.96	44.0202
1149.44	79.9583
1149.92	48.0522
1150.4	30.4831
1150.89	27.8564
1151.37	60.899
1151.85	56.7018
1152.33	68.8472
1152.81	55.808
1153.3	28.4006
1153.78	22.6789
1154.26	21.4684
1154.74	28.9717
1155.22	18.9623
1155.71	19.4034
1156.19	16.9028
1156.67	19.1323
1157.15	17.136
1157.64	18.3085
1158.12	19.3129
1158.6	19.3737
1159.08	18.5589
1159.56	18.5357
1160.05	19.6769
1160.53	20.1509
1161.01	18.5886
1161.49	21.2242
1161.97	20.6997
1162.46	21.702
1162.94	22.6459
1163.42	20.8814
1163.9	35.6856
1164.39	30.5115
1164.87	63.8364
1165.35	74.7512
1165.83	68.8904
1166.31	40.7549
1166.8	27.7246
1167.28	28.6692
1167.76	17.171
1168.24	21.4045
1168.72	18.5737
1169.21	29.0469
1169.69	23.6639
1170.17	29.2888
1170.65	21.8765
1171.14	31.3491
1171.62	29.4522
1172.1	31.0972
1172.58	34.9189
1173.06	49.8331
1173.55	71.217
1174.03	74.9651
1174.51	74.5483
1174.99	73.0632
1175.47	57.0753
1175.96	41.5075
1176.44	42.3746
1176.92	34.7987
1177.4	26.3821
1177.89	23.1628
1178.37	31.471
1178.85	37.0203
1179.33	18.8383
1179.81	23.637
1180.3	23.3428
1180.78	47.7316
1181.26	26.7673
1181.74	21.3388
1182.22	20.842
1182.71	21.9455
1183.19	20.9726
1183.67	26.833
1184.15	41.5186
1184.64	27.4621
1185.12	32.3273
1185.6	46.2734
1186.08	54.249
1186.56	70.8188
1187.05	73.3179
1187.53	68.907
1188.01	49.8096
1188.49	36.0656
1188.98	29.5197
1189.46	25.242
1189.94	25.0567
1190.42	30.0242
1190.9	33.79
1191.39	45.0161
1191.87	21.2971
1192.35	26.2009
1192.83	20.944
1193.31	35.2408
1193.8	29.3037
1194.28	18.1451
1194.76	20.7323
1195.24	30.9376
1195.73	27.0831
1196.21	32.1615
1196.69	30.1394
1197.17	38.2269
1197.65	60.8426
1198.14	72.6415
1198.62	64.3559
1199.1	43.8913
1199.58	31.3229
1200.06	25.72
1200.55	23.0711
1201.03	26.6367
1201.51	27.5073
1201.99	21.994
1202.48	18.5647
1202.96	21.3731
1203.44	19.0952
1203.92	21.977
1204.4	16.1232
1204.89	26.6259
1205.37	21.0343
1205.85	39.8709
1206.33	46.794
1206.81	22.3552
1207.3	32.2063
1207.78	22.3892
1208.26	25.2873
1208.74	38.0449
1209.23	38.5383
1209.71	36.5329
1210.19	40.0139
1210.67	53.2003
1211.15	68.3151
1211.64	67.6533
1212.12	68.9325
1212.6	68.5797
1213.08	61.6755
1213.56	45.1709
1214.05	35.864
1214.53	37.2112
1215.01	51.9789
1215.49	42.73
1215.98	34.8729
1216.46	31.176
1216.94	30.452
1217.42	36.4501
1217.9	54.928
1218.39	67.5301
1218.87	65.6083
1219.35	48.9252
1219.83	39.5597
1220.31	48.4673
1220.8	50.9905
1221.28	45.8994
1221.76	41.799
1222.24	42.7565
1222.73	44.7368
1223.21	39.7509
1223.69	45.0371
1224.17	56.4946
1224.65	65.3035
1225.14	67.628
1225.62	66.1628
1226.1	62.9988
1226.58	49.7532
1227.06	46.0859
1227.55	28.9891
1228.03	27.6739
1228.51	26.3979
1228.99	39.9844
1229.48	44.6368
1229.96	33.4795
1230.44	29.0189
1230.92	19.3674
1231.4	21.0611
1231.89	20.1334
1232.37	22.8491
1232.85	30.4745
1233.33	33.5979
1233.81	23.5639
1234.3	18.2604
1234.78	23.388
1235.26	21.2675
1235.74	30.0153
1236.23	46.9137
1236.71	45.1455
1237.19	56.8627
1237.67	37.5143
1238.15	29.575
1238.64	39.5004
1239.12	59.7667
1239.6	53.3564
1240.08	47.9903
1240.56	44.7086
1241.05	42.2699
1241.53	36.1545
1242.01	43.4778
1242.49	53.1333
1242.98	62.8575
1243.46	61.9708
1243.94	63.5192
1244.42	64.5741
1244.9	61.0797
1245.39	54.0524
1245.87	42.7369
1246.35	44.525
1246.83	40.6772
1247.31	32.0353
1247.8	48.2025
1248.28	51.4256
1248.76	47.537
1249.24	43.6497
1249.73	41.277
1250.21	33.7549
1250.69	33.5715
1251.17	53.0655
1251.65	46.3474
1252.14	48.9105
1252.62	50.6006
1253.1	39.9594
1253.58	61.0231
1254.06	50.3362
1254.55	56.2019
1255.03	46.625
1255.51	41.7332
1255.99	42.5194
1256.48	47.4873
1256.96	55.5859
1257.44	54.1471
1257.92	50.9745
1258.4	61.2808
1258.89	60.8011
1259.37	61.2088
1259.85	61.3108
1260.33	61.8007
1260.81	61.4189
1261.3	60.6265
1261.78	59.1116
1262.26	56.6003
1262.74	52.1453
1263.23	54.6472
1263.71	58.2169
1264.19	59.31
1264.67	54.8194
1265.15	60.7386
1265.64	60.2506
1266.12	60.9549
1266.6	60.3335
1267.08	59.3044
1267.57	59.2968
1268.05	61.2648
1268.53	60.1146
1269.01	60.6031
1269.49	59.7708
1269.98	60.5341
1270.46	59.7464
1270.94	60.0221
1271.42	59.8563
1271.9	59.9176
1272.39	60.1085
1272.87	59.0206
1273.35	59.2039
1273.83	55.3305
1274.32	50.6779
1274.8	50.9424
1275.28	53.1694
1275.76	47.982
1276.24	45.6663
1276.73	53.0839
1277.21	48.6211
1277.69	48.0769
1278.17	43.0096
1278.65	45.4357
1279.14	49.6676
1279.62	57.1594
1280.1	58.6555
1280.58	57.7493
1281.07	57.0225
1281.55	56.366
1282.03	49.1495
1282.51	49.5162
1282.99	52.6202
1283.48	54.2792
1283.96	56.8789
1284.44	57.5672
1284.92	54.4941
1285.4	50.6089
1285.89	55.6087
1286.37	56.9908
1286.85	57.1886
1287.33	58.1849
1287.82	57.501
1288.3	57.8929
1288.78	57.5984
1289.26	56.5261
1289.74	54.8641
1290.23	57.0317
1290.71	56.8598
1291.19	54.7922
1291.67	51.4561
1292.15	52.0022
1292.64	54.0793
1293.12	54.166
1293.6	50.5448
1294.08	50.9298
1294.57	50.2862
1295.05	53.3829
1295.53	52.6558
1296.01	55.0245
1296.49	56.006
1296.98	56.4456
1297.46	54.7088
1297.94	52.2577
1298.42	48.523
1298.9	45.9637
1299.39	48.6639
1299.87	52.0801
1300.35	47.9285
1300.83	47.4505
1301.32	50.8582
1301.8	51.8973
1302.28	49.6722
1302.76	51.6614
1303.24	52.4538
1303.73	52.894
1304.21	52.1163
1304.69	53.5962
1305.17	53.9266
1305.65	55.2261
1306.14	54.4478
1306.62	54.4271
1307.1	53.848
1307.58	54.8118
1308.07	54.7531
1308.55	55.0187
1309.03	53.9736
1309.51	53.6425
1309.99	52.7512
1310.48	53.615
1310.96	53.381
1311.44	54.1979
1311.92	54.3196
1312.4	54.1567
1312.89	54.299
1313.37	54.2867
1313.85	53.9692
1314.33	54.3036
1314.82	53.7142
1315.3	53.9947
1315.78	53.6994
1316.26	54.0956
1316.74	53.251
1317.23	53.7464
1317.71	53.3797
1318.19	54.0046
1318.67	52.9963
1319.15	53.2676
1319.64	53.2715
1320.12	53.3108
1320.6	53.2431
1321.08	53.3722
1321.57	52.7632
1322.05	52.6133
1322.53	52.2855
1323.01	52.8774
1323.49	52.7894
1323.98	52.4595
1324.46	52.0822
1324.94	51.2356
1325.42	50.0212
1325.9	51.91
1326.39	51.1698
1326.87	50.8968
1327.35	51.6435
1327.83	52.5065
1328.32	51.0298
1328.8	50.4024
1329.28	51.5284
1329.76	52.3488
1330.24	52.0829
1330.73	50.4578
1331.21	49.1964
1331.69	49.977
1332.17	51.102
1332.65	51.4449
1333.14	50.9276
1333.62	51.1814
1334.1	50.8818
1334.58	51.1657
1335.07	51.1701
1335.55	51.4051
1336.03	51.3617
1336.51	51.0857
1336.99	50.9112
1337.48	51.4319
1337.96	50.8595
1338.44	50.6596
1338.92	50.0789
1339.41	50.6446
1339.89	50.4126
1340.37	49.8332
1340.85	50.361
1341.33	50.7439
1341.82	50.3034
1342.3	50.4533
1342.78	50.2481
1343.26	50.2158
1343.74	50.0596
1344.23	50.2642
1344.71	49.7181
1345.19	49.4111
1345.67	49.5628
1346.16	49.7276
1346.64	48.9489
1347.12	49.6957
1347.6	49.1761
1348.08	49.3517
1348.57	49.5464
1349.05	49.7047
1349.53	49.3902
1350.01	49.809
1350.49	49.0769
1350.98	49.1195
1351.46	49.1203
1351.94	49.0436
1352.42	48.949
1352.91	48.6699
1353.39	48.5735
1353.87	48.7893
1354.35	49.0369
1354.83	48.4948
1355.32	48.7999
1355.8	49.1139
1356.28	48.4177
1356.76	48.5421
1357.24	48.4363
1357.73	48.6345
1358.21	48.2202
1358.69	48.5161
1359.17	48.3987
1359.66	48.8272
1360.14	48.2905
1360.62	48.1993
1361.1	46.9011
1361.58	48.0778
1362.07	47.9109
1362.55	47.7448
1363.03	44.8112
1363.51	47.6918
1363.99	48.0001
1364.48	47.7655
1364.96	47.933
1365.44	47.75
1365.92	47.4969
1366.41	47.3208
1366.89	47.2963
1367.37	47.3789
1367.85	47.5578
1368.33	47.2126
1368.82	46.6424
1369.3	47.2829
1369.78	47.0915
1370.26	47.0528
1370.74	46.9713
1371.23	46.9784
1371.71	46.8024
1372.19	46.6524
1372.67	46.5139
1373.16	46.7712
1373.64	44.7457
1374.12	46.4005
1374.6	46.291
1375.08	45.7262
1375.57	46.2291
1376.05	46.6583
1376.53	46.1946
1377.01	46.0805
1377.49	46.2945
1377.98	45.955
1378.46	46.1455
1378.94	46.2351
1379.42	45.6077
1379.91	45.86
1380.39	45.7939
1380.87	45.9862
1381.35	45.7985
1381.83	45.7305
1382.32	45.3754
1382.8	45.5935
1383.28	45.2483
1383.76	45.5313
1384.24	45.2145
1384.73	45.4325
1385.21	45.422
1385.69	45.3989
1386.17	45.0524
1386.66	44.4438
1387.14	44.5103
1387.62	43.576
1388.1	44.8761
1388.58	44.7323
1389.07	44.6182
1389.55	45.0222
1390.03	44.6335
1390.51	44.7029
1390.99	44.5088
1391.48	44.9607
1391.96	44.6901
1392.44	44.6533
1392.92	44.2766
1393.41	44.3559
1393.89	43.7457
1394.37	46.2774
1394.85	43.9241
1395.33	43.2523
1395.82	43.0817
1396.3	43.637
1396.78	44.0489
1397.26	43.9154
1397.74	43.0259
1398.23	43.2757
1398.71	43.7353
1399.19	37.6338
1399.67	42.5793
1400.16	43.6916
1400.64	43.2773
1401.12	43.3236
1401.6	43.6396
1402.08	43.5986
1402.57	43.102
1403.05	43.3366
1403.53	43.0437
1404.01	43.187
1404.49	42.8797
1404.98	39.7723
1405.46	42.2265
1405.94	42.9077
1406.42	42.8532
1406.91	42.9323
1407.39	42.7018
1407.87	42.7468
1408.35	42.6177
1408.83	42.7076
1409.32	42.3402
1409.8	42.4821
1410.28	42.0571
1410.76	42.6521
1411.24	42.2013
1411.73	42.0971
1412.21	41.9231
1412.69	42.1494
1413.17	41.8695
1413.66	41.9655
1414.14	42.0183
1414.62	42.1876
1415.1	41.8828
1415.58	42.1311
1416.07	41.1746
1416.55	41.5712
1417.03	41.2251
1417.51	40.4024
1417.99	40.8721
1418.48	40.9434
1418.96	37.9217
1419.44	34.1387
1419.92	40.2174
1420.41	41.5888
1420.89	41.0941
1421.37	41.3458
1421.85	41.174
1422.33	41.3222
1422.82	40.7766
1423.3	40.7045
1423.78	39.9952
1424.26	41.0064
1424.74	40.968
1425.23	41.0818
1425.71	40.8289
1426.19	40.6981
1426.67	40.8727
1427.16	40.6464
1427.64	40.7663
1428.12	40.334
1428.6	40.4287
1429.08	40.4096
1429.57	39.7634
1430.05	38.6874
1430.53	40.1755
1431.01	40.355
1431.5	40.2477
1431.98	40.0907
1432.46	40.1715
1432.94	40.0973
1433.42	39.0388
1433.91	39.9265
1434.39	39.9184
1434.87	40.0455
1435.35	39.2655
1435.83	38.8169
1436.32	39.2732
1436.8	40.1806
1437.28	38.6536
1437.76	39.0278
1438.25	39.1291
1438.73	39.2959
1439.21	39.2301
1439.69	39.2523
1440.17	39.1993
1440.66	39.3368
1441.14	39.2921
1441.62	39.0429
1442.1	39.3165
1442.58	39.071
1443.07	38.8845
1443.55	39.1771
1444.03	38.6825
1444.51	38.8262
1445	38.4751
1445.48	38.4853
1445.96	38.6193
1446.44	38.3181
1446.92	38.4922
1447.41	37.6562
1447.89	35.498
1448.37	37.5999
1448.85	38.3049
1449.33	38.2427
1449.82	38.4695
1450.3	38.0962
1450.78	38.276
1451.26	38.4583
1451.75	37.6402
1452.23	37.545
1452.71	37.9525
1453.19	37.7882
1453.67	37.8871
1454.16	37.2253
1454.64	37.1345
1455.12	37.126
1455.6	37.2278
1456.08	35.5807
1456.57	49.2553
1457.05	35.7448
1457.53	35.7061
1458.01	37.0542
1458.5	36.4423
1458.98	36.6023
1459.46	36.2149
1459.94	37.3522
1460.42	36.7887
1460.91	37.3392
1461.39	36.8174
1461.87	37.5795
1462.35	36.7373
1462.83	37.1774
1463.32	36.2939
1463.8	37.5551
1464.28	34.5934
1464.76	55.1888
1465.25	37.7388
1465.73	35.7441
1466.21	36.8946
1466.69	36.5102
1467.17	36.7887
1467.66	36.1829
1468.14	36.708
1468.62	35.8937
1469.1	36.4575
1469.58	36.0157
1470.07	36.2817
1470.55	35.4453
1471.03	36.1753
1471.51	33.4147
1472	52.8536
1472.48	36.264
1472.96	33.42
1473.44	47.0542
1473.92	35.1116
1474.41	34.6175
1474.89	35.5413
1475.37	35.7389
1475.85	34.7205
1476.33	39.3863
1476.82	35.5968
1477.3	34.9757
1477.78	35.5836
1478.26	35.2743
1478.75	35.4889
1479.23	35.3068
1479.71	35.3727
1480.19	35.2256
1480.67	35.0529
1481.16	34.5967
1481.64	35.4226
1482.12	34.9894
1482.6	35.3002
1483.08	34.9628
1483.57	35.1602
1484.05	34.9059
1484.53	34.7931
1485.01	34.8545
1485.5	34.6972
1485.98	34.3268
1486.46	34.056
1486.94	34.2811
1487.42	33.18
1487.91	33.8393
1488.39	34.3292
1488.87	33.5139
1489.35	32.5337
1489.83	33.1084
1490.32	34.7592
1490.8	32.0327
1491.28	33.478
1491.76	33.7626
1492.25	34.4524
1492.73	33.9425
1493.21	34.2613
1493.69	33.8453
1494.17	34.0607
1494.66	33.595
1495.14	34.1412
1495.62	31.9714
1496.1	46.2689
1496.58	34.6999
1497.07	32.7428
1497.55	33.4372
1498.03	32.6707
1498.51	32.3001
1499	31.3081
1499.48	32.8063
1499.96	33.3722
1500.44	32.9285
1500.92	33.1163
1501.41	32.839
1501.89	33.0482
1502.37	32.8047
1502.85	33.1661
1503.33	32.5435
1503.82	32.9309
1504.3	32.0686
1504.78	33.182
1505.26	33.0249
1505.75	43.905
1506.23	29.3565
1506.71	35.5606
1507.19	18.1214
1507.67	31.7173
1508.16	30.9438
1508.64	30.1723
1509.12	32.9159
1509.6	29.8913
1510.09	32.2688
1510.57	31.214
1511.05	32.4435
1511.53	31.749
1512.01	31.8369
1512.5	31.7159
1512.98	32.3424
1513.46	31.7203
1513.94	32.2465
1514.42	31.3243
1514.91	30.6432
1515.39	30.7282
1515.87	32.3064
1516.35	28.9758
1516.84	33.8839
1517.32	10.7803
1517.8	27.9665
1518.28	32.005
1518.76	30.9284
1519.25	31.2208
1519.73	31.0754
1520.21	20.4122
1520.69	29.0432
1521.17	36.6677
1521.66	29.6516
1522.14	31.9406
1522.62	19.2282
1523.1	29.6711
1523.59	31.128
1524.07	30.6045
1524.55	30.9312
1525.03	29.2996
1525.51	31.4235
1526	30.2875
1526.48	30.6611
1526.96	30.5774
1527.44	29.9649
1527.92	30.5262
1528.41	30.2924
1528.89	30.2907
1529.37	30.4282
1529.85	30.7777
1530.34	30.4812
1530.82	30.6815
1531.3	29.6034
1531.78	30.0141
1532.26	29.6472
1532.75	31.0939
1533.23	27.343
1533.71	35.2848
1534.19	31.1527
1534.67	29.646
1535.16	30.1509
1535.64	29.5754
1536.12	29.7395
1536.6	29.8877
1537.09	29.2928
1537.57	29.8152
1538.05	28.6743
1538.53	32.3862
1539.01	29.5097
1539.5	40.0779
1539.98	35.8587
1540.46	31.9255
1540.94	28.8081
1541.42	28.9211
1541.91	14.3376
1542.39	28.1564
1542.87	30.3179
1543.35	28.9626
1543.84	29.3039
1544.32	29.3706
1544.8	28.7104
1545.28	30.3485
1545.76	29.5502
1546.25	28.7508
1546.73	29.4886
1547.21	29.074
1547.69	29.6173
1548.17	29.1039
1548.66	29.5725
1549.14	28.3662
1549.62	28.4581
1550.1	28.9369
1550.59	28.8398
1551.07	28.4459
1551.55	29.0293
1552.03	28.7088
1552.51	29.1021
1553	28.0117
1553.48	28.6806
1553.96	28.4179
1554.44	37.9396
1554.92	29.2217
1555.41	28.2878
1555.89	28.7029
1556.37	27.4991
1556.85	28.3435
1557.34	21.8828
1557.82	31.0523
1558.3	27.8305
1558.78	27.9425
1559.26	26.563
1559.75	27.621
1560.23	22.3351
1560.71	28.0777
1561.19	28.0746
1561.67	27.6391
1562.16	28.0254
1562.64	27.501
1563.12	28.0709
1563.6	27.6555
1564.09	27.6825
1564.57	27.1972
1565.05	25.9795
1565.53	27.629
1566.01	27.9928
1566.5	27.2436
1566.98	27.4649
1567.46	27.1038
1567.94	27.7609
1568.42	26.8195
1568.91	27.2765
1569.39	26.8109
1569.87	28.4005
1570.35	27.3625
1570.84	27.2338
1571.32	26.9624
1571.8	27.2351
1572.28	27.4921
1572.76	27.5347
1573.25	27.0254
1573.73	26.9839
1574.21	26.5745
1574.69	27.2868
1575.17	27.2976
1575.66	26.3888
1576.14	30.7713
1576.62	25.4188
1577.1	25.102
1577.59	26.5923
1578.07	26.6378
1578.55	26.7761
1579.03	26.6258
1579.51	26.7596
1580	26.4759
1580.48	26.7395
1580.96	26.5551
1581.44	26.6512
1581.93	26.4315
1582.41	26.7241
1582.89	26.2403
1583.37	26.7312
1583.85	25.9061
1584.34	27.0282
1584.82	26.5284
1585.3	26.4439
1585.78	26.2929
1586.26	26.5796
1586.75	25.8903
1587.23	26.3591
1587.71	26.0182
1588.19	25.9373
1588.68	26.1489
1589.16	25.9687
1589.64	25.786
1590.12	26.4421
1590.6	25.9716
1591.09	25.9946
1591.57	25.7503
1592.05	25.9475
1592.53	25.6209
1593.01	26.025
1593.5	25.4583
1593.98	25.7568
1594.46	25.0329
1594.94	25.5673
1595.43	25.6212
1595.91	25.4678
1596.39	25.5534
1596.87	25.706
1597.35	25.4235
1597.84	25.5825
1598.32	25.2646
1598.8	25.3616
1599.28	25.2002
1599.76	25.5309
1600.25	25.3899
1600.73	25.2644
1601.21	24.8969
1601.69	25.3435
1602.18	25.2995
1602.66	25.0948
1603.14	24.4747
1603.62	24.8906
1604.1	24.9215
1604.59	24.9778
1605.07	24.5628
1605.55	24.9188
1606.03	24.6621
1606.51	24.8723
1607	24.5388
1607.48	24.4741
1607.96	24.4641
1608.44	24.8011
1608.93	24.7421
1609.41	24.5255
1609.89	24.4412
1610.37	24.7148
1610.85	24.5299
1611.34	24.6168
1611.82	24.5233
1612.3	24.1242
1612.78	24.4118
1613.26	24.2911
1613.75	24.1064
1614.23	24.4053
1614.71	24.0452
1615.19	24.3259
1615.68	24.015
1616.16	21.1846
1616.64	32.1452
1617.12	23.7438
1617.6	22.935
1618.09	24.2509
1618.57	23.6016
1619.05	23.6742
1619.53	23.581
1620.01	24.2622
1620.5	22.5803
1620.98	23.8947
1621.46	23.012
1621.94	23.7623
1622.43	22.0993
1622.91	22.7242
1623.39	19.8172
1623.87	22.2892
1624.35	23.0893
1624.84	23.2372
1625.32	22.8814
1625.8	23.1388
1626.28	23.2683
1626.76	23.7613
1627.25	23.188
1627.73	18.9828
1628.21	22.4087
1628.69	23.748
1629.18	22.4523
1629.66	23.5026
1630.14	22.896
1630.62	23.9136
1631.1	22.7836
1631.59	23.8778
1632.07	22.5184
1632.55	23.7117
1633.03	22.4195
1633.51	23.369
1634	21.565
1634.48	25.185
1634.96	2.45163
1635.44	30.1113
1635.93	25.455
1636.41	21.7615
1636.89	22.9423
1637.37	24.2083
1637.85	22.941
1638.34	21.6828
1638.82	22.7931
1639.3	21.8826
1639.78	22.7474
1640.26	22.5646
1640.75	22.6351
1641.23	22.3288
1641.71	22.191
1642.19	22.6204
1642.68	21.9866
1643.16	21.9594
1643.64	21.9765
1644.12	22.327
1644.6	21.8465
1645.09	22.3345
1645.57	20.7171
1646.05	25.5226
1646.53	21.775
1647.01	21.031
1647.5	21.2912
1647.98	21.2525
1648.46	21.009
1648.94	21.4898
1649.43	21.8002
1649.91	21.3417
1650.39	21.3086
1650.87	21.4896
1651.35	21.5993
1651.84	21.3215
1652.32	19.5204
1652.8	22.2953
1653.28	24.0393
1653.76	19.7828
1654.25	20.7067
1654.73	18.2826
1655.21	20.206
1655.69	21.2485
1656.18	21.325
1656.66	21.5296
1657.14	21.3065
1657.62	21.3825
1658.1	21.3135
1658.59	21.3575
1659.07	20.9656
1659.55	21.3578
1660.03	21.2256
1660.52	21.5567
1661	20.7587
1661.48	21.3408
1661.96	20.5055
1662.44	21.2202
1662.93	16.506
1663.41	20.8084
1663.89	21.0825
1664.37	20.7996
1664.85	20.996
1665.34	20.8314
1665.82	20.4893
1666.3	20.5622
1666.78	20.8854
1667.27	20.8461
1667.75	20.1231
1668.23	20.9626
1668.71	19.4212
1669.19	27.4617
1669.68	22.161
1670.16	20.1147
1670.64	20.1111
1671.12	20.0958
1671.6	19.7817
1672.09	20.1867
1672.57	20.3956
1673.05	20.3565
1673.53	20.0653
1674.02	20.176
1674.5	19.2288
1674.98	19.644
1675.46	13.9544
1675.94	18.9234
1676.43	20.0905
1676.91	19.3803
1677.39	20.3311
1677.87	19.7554
1678.35	20.5242
1678.84	20.1169
1679.32	19.8968
1679.8	19.5579
1680.28	19.7132
1680.77	19.3187
1681.25	20.1867
1681.73	19.2454
1682.21	19.6448
1682.69	18.9647
1683.18	22.904
1683.66	22.3081
1684.14	30.0022
1684.62	25.9996
1685.1	23.6998
1685.59	18.9076
1686.07	18.6956
1686.55	19.8881
1687.03	19.301
1687.52	19.8372
1688	18.5828
1688.48	19.2141
1688.96	19.431
1689.44	19.1035
1689.93	19.4443
1690.41	19.1308
1690.89	19.3945
1691.37	19.6182
1691.85	19.1613
1692.34	19.4233
1692.82	19.2995
1693.3	19.2123
1693.78	18.9724
1694.27	18.7997
1694.75	18.46
1695.23	19.3444
1695.71	24.8227
1696.19	22.3575
1696.68	18.5751
1697.16	18.7433
1697.64	18.078
1698.12	18.5586
1698.6	17.7288
1699.09	18.8818
1699.57	19.9161
1700.05	27.2799
1700.53	18.5935
1701.02	24.593
1701.5	18.8038
1701.98	18.1065
1702.46	18.7459
1702.94	18.7084
1703.43	18.7142
1703.91	18.3392
1704.39	17.7703
1704.87	18.5517
1705.35	18.3752
1705.84	18.4804
1706.32	10.4176
1706.8	18.101
1707.28	18.6865
1707.77	17.7004
1708.25	18.7534
1708.73	17.8985
1709.21	18.9193
1709.69	18.1212
1710.18	17.6105
1710.66	17.5109
1711.14	18.2981
1711.62	18.3172
1712.1	18.6411
1712.59	17.5887
1713.07	18.1051
1713.55	17.6691
1714.03	17.6273
1714.52	16.8343
1715	20.8705
1715.48	17.5591
1715.96	18.0315
1716.44	17.126
1716.93	18.5513
1717.41	11.3656
1717.89	17.3851
1718.37	16.2296
1718.85	15.7474
1719.34	17.9392
1719.82	17.4989
1720.3	17.6553
1720.78	17.8037
1721.27	17.8257
1721.75	17.5364
1722.23	17.6247
1722.71	17.6209
1723.19	17.6644
1723.68	17.1523
1724.16	17.2949
1724.64	17.6241
1725.12	17.5198
1725.6	17.5994
1726.09	17.569
1726.57	17.7675
1727.05	17.1921
1727.53	17.7174
1728.02	17.0783
1728.5	17.5122
1728.98	17.4823
1729.46	17.1929
1729.94	14.1926
1730.43	16.419
1730.91	17.261
1731.39	17.0913
1731.87	17.2564
1732.35	16.9938
1732.84	16.8302
1733.32	15.3254
1733.8	15.3132
1734.28	22.2435
1734.77	16.5608
1735.25	16.5597
1735.73	16.752
1736.21	16.5457
1736.69	17.0512
1737.18	16.6268
1737.66	16.7486
1738.14	16.6348
1738.62	16.6914
1739.1	16.8326
1739.59	15.2476
1740.07	14.1826
1740.55	16.7666
1741.03	16.7048
1741.52	16.7461
1742	16.5703
1742.48	16.655
1742.96	15.6092
1743.44	16.2093
1743.93	16.3119
1744.41	16.5556
1744.89	15.9177
1745.37	16.8843
1745.86	16.0602
1746.34	16.4495
1746.82	16.1264
1747.3	16.2761
1747.78	15.7438
1748.27	16.7047
1748.75	14.5783
1749.23	16.0309
1749.71	15.7268
1750.19	16.5295
1750.68	14.8427
1751.16	22.6241
1751.64	15.3478
1752.12	15.7174
1752.61	16.5125
1753.09	16.1994
1753.57	16.181
1754.05	16.3219
1754.53	16.2993
1755.02	16.1317
1755.5	16.279
1755.98	15.8929
1756.46	15.1998
1756.94	16.4486
1757.43	16.03
1757.91	15.8926
1758.39	15.6172
1758.87	15.8894
1759.36	15.5477
1759.84	15.8145
1760.32	15.5754
1760.8	15.6267
1761.28	15.5891
1761.77	17.1508
1762.25	15.8581
1762.73	15.6025
1763.21	15.6041
1763.69	15.7059
1764.18	15.6494
1764.66	15.9669
1765.14	15.5608
1765.62	15.5591
1766.11	15.2565
1766.59	15.6758
1767.07	15.012
1767.55	15.3986
1768.03	12.831
1768.52	15.0144
1769	15.1096
1769.48	15.1829
1769.96	15.3234
1770.44	15.1414
1770.93	14.3855
1771.41	13.944
1771.89	14.7433
1772.37	17.3838
1772.86	10.81
1773.34	13.6456
1773.82	15.6335
1774.3	14.8903
1774.78	15.2255
1775.27	14.9049
1775.75	15.264
1776.23	14.8888
1776.71	14.9402
1777.19	15.2146
1777.68	15.1022
1778.16	14.9322
1778.64	14.9107
1779.12	14.4461
1779.61	14.8911
1780.09	15.2817
1780.57	14.2205
1781.05	14.4583
1781.53	14.778
1782.02	15.1156
1782.5	14.5993
1782.98	14.9431
1783.46	14.6272
1783.94	14.5015
1784.43	14.7238
1784.91	14.05
1785.39	14.5422
1785.87	14.4148
1786.36	14.9234
1786.84	14.5295
1787.32	14.5111
1787.8	14.6654
1788.28	14.6082
1788.77	14.8183
1789.25	14.5243
1789.73	14.2827
1790.21	14.4851
1790.69	14.1922
1791.18	14.3031
1791.66	14.3732
1792.14	13.7247
1792.62	16.9715
1793.11	13.3323
1793.59	14.0777
1794.07	13.994
1794.55	14.2774
1795.03	14.4385
1795.52	14.3781
1796	13.2638
1796.48	14.5577
1796.96	14.4069
1797.44	13.8222
1797.93	14.2936
1798.41	14.3084
1798.89	13.9739
1799.37	13.3771
1799.86	13.467
