
Continuum:          CURRENT:2

Date/Time Stored:   Mon Jul 22, 2002 10:35:11
Application:        Cary
Method:             SAMPLES:DEFAULT


Comment:            NASA, AMES RESEARCH CENTER, 453DF5, #877/0229  GWJ (@ 23-c)
Calculation:        


UV SBW:                       1.50 nanometers
Wavelength UV Rate:           300.000 nanometers/minute
Wavelength UV Interval:       0.165 nanometers
Wavelength UV SAT:            0.0333 seconds
UV Energy:                    1819.701 

Indep NIR Mode:               Off 

Baseline Correct:             On  

Current Cycle No:             1 

Source Change WL:             360.0 nanometers
Detector Change WL:           860.0 nanometers

Beam Mode:                    Double beam 
Beam Interchange:             Normal 

Slit Height:                  Full height 

Signal/Noise Mode:            Off 

Abscissa Mode:                Wavelength /nm 
Abscissa Control:             Normal
Min. Abscissa Value:          300.165 
Max. Abscissa Value:          1200 

Prim Ordinate Mode:           A 
Prim Ord Factor:              1 
Min. Ordinate Value:          0.261558 
Max. Ordinate Value:          9.9999 










X-Y PAIRS

Over Abscissa Range 300.165 Wavelength /nm to 1200 Wavelength /nm
Using Abscissa Interval: 1 Wavelength /nm

 Wavelength /nm      A      
 ============== =========== 

  1200           10.000
  1199           10.000
  1198           10.000
  1197           10.000
  1196           10.000
  1195           10.000
  1194           8.170
  1193           10.000
  1192           10.000
  1191           10.000
  1190           10.000
  1189           10.000
  1188           10.000
  1187           10.000
  1186           10.000
  1185           10.000
  1184           10.000
  1183           10.000
  1182           10.000
  1181           10.000
  1180           6.075
  1179           9.231
  1178           10.000
  1177           10.000
  1176           10.000
  1175           10.000
  1174           10.000
  1173           10.000
  1172           10.000
  1171           10.000
  1170           10.000

  1169           10.000
  1168           10.000
  1167           10.000
  1166           8.152
  1165           10.000
  1164           10.000
  1163           10.000
  1162           10.000
  1161           10.000
  1160           10.000
  1159           10.000
  1158           10.000
  1157           10.000
  1156           10.000
  1155           10.000
  1154           10.000
  1153           10.000
  1152           10.000
  1151           10.000
  1150           10.000
  1149           10.000
  1148           10.000
  1147           10.000
  1146           10.000
  1145           10.000
  1144           10.000
  1143           10.000
  1142           10.000
  1141           10.000
  1140           10.000
  1139           10.000
  1138           10.000
  1137           9.226
  1136           6.307
  1135           10.000
  1134           8.151
  1133           7.227
  1132           10.000
  1131           10.000
  1130           10.000
  1129           10.000
  1128           6.942
  1127           7.048
  1126           8.028
  1125           8.907

  1124           10.000
  1123           7.723
  1122           10.000
  1121           10.000
  1120           10.000
  1119           10.000
  1118           10.000
  1117           10.000
  1116           6.309
  1115           10.000
  1114           8.481
  1113           10.000
  1112           10.000
  1111           10.000
  1110           10.000
  1109           10.000
  1108           10.000
  1107           10.000
  1106           8.475
  1105           10.000
  1104           10.000
  1103           10.000
  1102           8.476
  1101           10.000
  1100           10.000
  1099           10.000
  1098           8.489
  1097           6.926
  1096           10.000
  1095           10.000
  1094           10.000
  1093           10.000
  1092           10.000
  1091           10.000
  1090           10.000
  1089           10.000
  1088           10.000
  1087           10.000
  1086           10.000
  1085           10.000
  1084           10.000
  1083           9.298
  1082           10.000
  1081           10.000
  1080           10.000

  1079           10.000
  1078           10.000
  1077           10.000
  1076           10.000
  1075           10.000
  1074           10.000
  1073           10.000
  1072           10.000
  1071           10.000
  1070           10.000
  1069           10.000
  1068           5.907
  1067           10.000
  1066           10.000
  1065           8.944
  1064           6.413
  1063           10.000
  1062           10.000
  1061           10.000
  1060           10.000
  1059           8.945
  1058           10.000
  1057           10.000
  1056           10.000
  1055           6.941
  1054           10.000
  1053           10.000
  1052           10.000
  1051           10.000
  1050           10.000
  1049           10.000
  1048           10.000
  1047           8.982
  1046           10.000
  1045           10.000
  1044           10.000
  1043           10.000
  1042           10.000
  1041           10.000
  1040           10.000
  1039           10.000
  1038           10.000
  1037           10.000
  1036           10.000
  1035           5.746

  1034           10.000
  1033           10.000
  1032           10.000
  1031           6.854
  1030           10.000
  1029           10.000
  1028           10.000
  1027           7.761
  1026           10.000
  1025           10.000
  1024           10.000
  1023           6.981
  1022           10.000
  1021           10.000
  1020           10.000
  1019           10.000
  1018           10.000
  1017           10.000
  1016           10.000
  1015           10.000
  1014           10.000
  1013           10.000
  1012           10.000
  1011           10.000
  1010           10.000
  1009           10.000
  1008           10.000
  1007           10.000
  1006           10.000
  1005           10.000
  1004           10.000
  1003           10.000
  1002           10.000
  1001           10.000
  1000           10.000
  999.0          10.000
  998.0          10.000
  997.0          10.000
  996.0          10.000
  995.0          10.000
  994.0          10.000
  993.0          10.000
  992.0          10.000
  991.0          9.285
  990.0          10.000

  989.0          10.000
  988.0          7.790
  987.0          10.000
  986.0          10.000
  985.0          10.000
  984.0          10.000
  983.0          10.000
  982.0          10.000
  981.0          10.000
  980.0          10.000
  979.0          6.907
  978.0          10.000
  977.0          10.000
  976.0          10.000
  975.0          10.000
  974.0          10.000
  973.0          10.000
  972.0          10.000
  971.0          10.000
  970.0          10.000
  969.0          10.000
  968.0          10.000
  967.0          10.000
  966.0          7.765
  965.0          10.000
  964.0          10.000
  963.0          10.000
  962.0          10.000
  961.0          10.000
  960.0          10.000
  959.0          10.000
  958.0          10.000
  957.0          10.000
  956.0          10.000
  955.0          10.000
  954.0          10.000
  953.0          10.000
  952.0          10.000
  951.0          6.406
  950.0          10.000
  949.0          10.000
  948.0          10.000
  947.0          10.000
  946.0          10.000
  945.0          10.000

  944.0          10.000
  943.0          10.000
  942.0          10.000
  941.0          10.000
  940.0          10.000
  939.0          10.000
  938.0          10.000
  937.0          10.000
  936.0          10.000
  935.0          10.000
  934.0          10.000
  933.0          10.000
  932.0          10.000
  931.0          10.000
  930.0          10.000
  929.0          10.000
  928.0          10.000
  927.0          10.000
  926.0          10.000
  925.0          10.000
  924.0          10.000
  923.0          10.000
  922.0          10.000
  921.0          10.000
  920.0          10.000
  919.0          10.000
  918.0          10.000
  917.0          10.000
  916.0          10.000
  915.0          10.000
  914.0          10.000
  913.0          10.000
  912.0          10.000
  911.0          10.000
  910.0          10.000
  909.0          10.000
  908.0          10.000
  907.0          10.000
  906.0          7.689
  905.0          10.000
  904.0          10.000
  903.0          10.000
  902.0          10.000
  901.0          10.000
  900.0          10.000

  899.0          10.000
  898.0          7.431
  897.0          10.000
  896.0          10.000
  895.0          10.000
  894.0          10.000
  893.0          10.000
  892.0          10.000
  891.0          10.000
  890.0          7.451
  889.0          10.000
  888.0          10.000
  887.0          10.000
  886.0          10.000
  885.0          6.255
  884.0          5.263
  883.0          10.000
  882.0          10.000
  881.0          10.000
  880.0          10.000
  879.0          10.000
  878.0          10.000
  877.0          10.000
  876.0          10.000
  875.0          10.000
  874.0          10.000
  873.0          10.000
  872.0          10.000
  871.0          10.000
  870.0          7.235
  869.0          8.793
  868.0          4.256
  867.0          10.000
  866.0          10.000
  865.0          10.000
  864.0          10.000
  863.0          10.000
  862.0          10.000
  861.0          10.000
  860.0          10.000
  859.0          9.378
  858.0          5.672
  857.0          6.154
  856.0          10.000
  855.0          8.477

  854.0          10.000
  853.0          5.043
  852.0          7.373
  851.0          5.113
  850.0          10.000
  849.0          6.531
  848.0          10.000
  847.0          9.330
  846.0          5.448
  845.0          9.861
  844.0          6.433
  843.0          6.717
  842.0          6.021
  841.0          5.970
  840.0          10.000
  839.0          8.440
  838.0          6.675
  837.0          10.000
  836.0          5.631
  835.0          8.228
  834.0          5.917
  833.0          10.000
  832.0          8.866
  831.0          5.806
  830.0          9.427
  829.0          6.652
  828.0          5.302
  827.0          6.325
  826.0          5.758
  825.0          5.624
  824.0          5.866
  823.0          5.847
  822.0          5.356
  821.0          10.000
  820.0          7.804
  819.0          10.000
  818.0          5.807
  817.0          8.511
  816.0          6.801
  815.0          5.450
  814.0          9.334
  813.0          6.347
  812.0          10.000
  811.0          6.399
  810.0          5.625

  809.0          10.000
  808.0          5.571
  807.0          5.739
  806.0          7.263
  805.0          8.287
  804.0          5.805
  803.0          5.642
  802.0          5.532
  801.0          10.000
  800.0          5.867
  799.0          5.520
  798.0          5.965
  797.0          5.664
  796.0          9.725
  795.0          5.844
  794.0          6.830
  793.0          6.294
  792.0          5.983
  791.0          10.000
  790.0          8.766
  789.0          10.000
  788.0          8.060
  787.0          8.068
  786.0          7.959
  785.0          10.000
  784.0          7.189
  783.0          10.000
  782.0          6.642
  781.0          6.594
  780.0          5.925
  779.0          10.000
  778.0          9.868
  777.0          9.671
  776.0          6.803
  775.0          6.034
  774.0          9.047
  773.0          7.200
  772.0          7.681
  771.0          10.000
  770.0          10.000
  769.0          5.951
  768.0          8.438
  767.0          5.749
  766.0          6.193
  765.0          10.000

  764.0          6.303
  763.0          10.000
  762.0          7.242
  761.0          6.447
  760.0          9.496
  759.0          6.571
  758.0          6.104
  757.0          7.829
  756.0          10.000
  755.0          6.439
  754.0          7.886
  753.0          7.967
  752.0          10.000
  751.0          6.130
  750.0          8.993
  749.0          7.152
  748.0          6.764
  747.0          7.205
  746.0          6.393
  745.0          7.013
  744.0          6.830
  743.0          6.634
  742.0          7.873
  741.0          9.101
  740.0          10.000
  739.0          8.828
  738.0          8.298
  737.0          10.000
  736.0          6.744
  735.0          8.605
  734.0          7.118
  733.0          10.000
  732.0          10.000
  731.0          9.550
  730.0          10.000
  729.0          6.283
  728.0          6.109
  727.0          6.576
  726.0          9.401
  725.0          6.182
  724.0          7.368
  723.0          6.721
  722.0          7.849
  721.0          8.459
  720.0          7.878

  719.0          8.058
  718.0          8.710
  717.0          7.211
  716.0          6.242
  715.0          10.000
  714.0          9.730
  713.0          10.000
  712.0          9.880
  711.0          9.680
  710.0          10.000
  709.0          7.194
  708.0          10.000
  707.0          7.645
  706.0          10.000
  705.0          6.437
  704.0          8.169
  703.0          6.905
  702.0          8.465
  701.0          9.250
  700.0          6.793
  699.0          6.442
  698.0          10.000
  697.0          6.783
  696.0          6.797
  695.0          6.808
  694.0          7.042
  693.0          9.368
  692.0          7.560
  691.0          7.331
  690.0          6.490
  689.0          6.245
  688.0          8.050
  687.0          6.650
  686.0          8.055
  685.0          6.239
  684.0          7.213
  683.0          6.925
  682.0          10.000
  681.0          6.717
  680.0          6.316
  679.0          6.713
  678.0          9.695
  677.0          9.453
  676.0          6.790
  675.0          7.321

  674.0          6.688
  673.0          8.916
  672.0          6.933
  671.0          6.819
  670.0          6.745
  669.0          8.016
  668.0          6.708
  667.0          6.871
  666.0          6.957
  665.0          9.665
  664.0          6.734
  663.0          6.898
  662.0          7.383
  661.0          6.652
  660.0          7.569
  659.0          10.000
  658.0          6.712
  657.0          10.000
  656.0          6.836
  655.0          10.000
  654.0          7.360
  653.0          10.000
  652.0          8.384
  651.0          7.659
  650.0          7.544
  649.0          8.056
  648.0          7.050
  647.0          6.883
  646.0          9.907
  645.0          7.035
  644.0          6.988
  643.0          9.521
  642.0          8.012
  641.0          10.000
  640.0          8.004
  639.0          8.513
  638.0          7.420
  637.0          8.223
  636.0          7.909
  635.0          7.595
  634.0          9.545
  633.0          6.786
  632.0          7.301
  631.0          7.117
  630.0          6.639

  629.0          9.807
  628.0          7.811
  627.0          7.803
  626.0          7.664
  625.0          8.003
  624.0          7.964
  623.0          8.106
  622.0          8.233
  621.0          7.085
  620.0          8.702
  619.0          10.000
  618.0          6.682
  617.0          6.886
  616.0          9.590
  615.0          7.900
  614.0          6.714
  613.0          9.940
  612.0          6.506
  611.0          6.727
  610.0          7.485
  609.0          7.208
  608.0          6.647
  607.0          6.791
  606.0          7.362
  605.0          7.130
  604.0          6.511
  603.0          8.351
  602.0          6.749
  601.0          6.841
  600.0          7.240
  599.0          6.570
  598.0          9.814
  597.0          6.929
  596.0          10.000
  595.0          6.673
  594.0          7.796
  593.0          10.000
  592.0          7.471
  591.0          6.422
  590.0          6.978
  589.0          8.405
  588.0          7.099
  587.0          8.865
  586.0          7.180
  585.0          6.605

  584.0          6.886
  583.0          8.252
  582.0          6.748
  581.0          8.447
  580.0          6.380
  579.0          7.542
  578.0          9.446
  577.0          10.000
  576.0          6.684
  575.0          7.573
  574.0          8.602
  573.0          10.000
  572.0          8.499
  571.0          7.460
  570.0          10.000
  569.0          7.925
  568.0          8.993
  567.0          7.307
  566.0          10.000
  565.0          6.859
  564.0          6.565
  563.0          6.367
  562.0          9.578
  561.0          7.041
  560.0          9.285
  559.0          7.832
  558.0          8.698
  557.0          10.000
  556.0          8.132
  555.0          7.518
  554.0          7.192
  553.0          6.475
  552.0          7.338
  551.0          6.939
  550.0          6.615
  549.0          6.835
  548.0          6.305
  547.0          9.912
  546.0          6.448
  545.0          7.372
  544.0          6.939
  543.0          10.000
  542.0          6.703
  541.0          10.000
  540.0          7.325

  539.0          8.439
  538.0          6.589
  537.0          8.771
  536.0          7.940
  535.0          9.246
  534.0          7.181
  533.0          6.815
  532.0          6.982
  531.0          7.745
  530.0          6.497
  529.0          9.566
  528.0          9.416
  527.0          6.848
  526.0          6.660
  525.0          8.576
  524.0          8.384
  523.0          6.491
  522.0          10.000
  521.0          6.930
  520.0          8.201
  519.0          6.347
  518.0          6.273
  517.0          6.523
  516.0          9.698
  515.0          9.893
  514.0          6.281
  513.0          9.658
  512.0          6.731
  511.0          6.404
  510.0          9.032
  509.0          7.800
  508.0          6.294
  507.0          6.210
  506.0          6.200
  505.0          6.270
  504.0          6.385
  503.0          6.508
  502.0          10.000
  501.0          6.211
  500.0          6.420
  499.0          6.344
  498.0          6.184
  497.0          6.251
  496.0          6.458
  495.0          6.895

  494.0          6.419
  493.0          6.555
  492.0          8.594
  491.0          6.230
  490.0          6.484
  489.0          6.660
  488.0          6.117
  487.0          6.146
  486.0          6.760
  485.0          6.977
  484.0          6.579
  483.0          6.632
  482.0          6.231
  481.0          6.398
  480.0          6.222
  479.0          7.669
  478.0          9.320
  477.0          6.154
  476.0          6.272
  475.0          6.084
  474.0          5.805
  473.0          5.807
  472.0          5.428
  471.0          5.284
  470.0          5.088
  469.0          4.881
  468.0          4.842
  467.0          4.719
  466.0          4.600
  465.0          4.599
  464.0          4.389
  463.0          4.238
  462.0          4.035
  461.0          3.764
  460.0          3.418
  459.0          2.998
  458.0          2.478
  457.0          1.857
  456.0          1.174
  455.0          0.5770
  454.0          0.3259
  453.0          0.2652
  452.0          0.2652
  451.0          0.2744
  450.0          0.3713

  449.0          0.7663
  448.0          1.494
  447.0          2.261
  446.0          2.900
  445.0          3.423
  444.0          3.837
  443.0          4.210
  442.0          4.440
  441.0          4.641
  440.0          4.771
  439.0          4.904
  438.0          5.023
  437.0          5.077
  436.0          5.215
  435.0          5.292
  434.0          5.580
  433.0          5.754
  432.0          5.846
  431.0          6.102
  430.0          6.036
  429.0          7.160
  428.0          6.660
  427.0          7.081
  426.0          6.749
  425.0          8.346
  424.0          6.165
  423.0          6.334
  422.0          7.588
  421.0          8.834
  420.0          6.643
  419.0          6.362
  418.0          5.812
  417.0          5.838
  416.0          9.869
  415.0          6.280
  414.0          6.425
  413.0          6.201
  412.0          6.223
  411.0          6.022
  410.0          10.000
  409.0          8.782
  408.0          8.471
  407.0          10.000
  406.0          6.074
  405.0          10.000

  404.0          8.845
  403.0          6.371
  402.0          9.299
  401.0          6.150
  400.0          9.805
  399.0          5.783
  398.0          9.775
  397.0          6.462
  396.0          9.268
  395.0          7.403
  394.0          10.000
  393.0          10.000
  392.0          10.000
  391.0          10.000
  390.0          8.205
  389.0          7.339
  388.0          6.157
  387.0          10.000
  386.0          10.000
  385.0          6.622
  384.0          6.744
  383.0          10.000
  382.0          9.873
  381.0          9.723
  380.0          10.000
  379.0          10.000
  378.0          10.000
  377.0          5.877
  376.0          5.560
  375.0          7.575
  374.0          7.769
  373.0          8.900
  372.0          5.587
  371.0          5.553
  370.0          8.982
  369.0          10.000
  368.0          6.201
  367.0          5.622
  366.0          10.00
  365.0          10.000
  364.0          10.000
  363.0          6.356
  362.0          8.942
  361.0          10.000
  360.0          6.961

  359.0          6.983
  358.0          7.779
  357.0          7.788
  356.0          8.277
  355.0          8.592
  354.0          6.975
  353.0          4.964
  352.0          10.000
  351.0          10.000
  350.0          10.000
  349.0          9.861
  348.0          5.515
  347.0          9.307
  346.0          10.000
  345.0          10.000
  344.0          8.366
  343.0          8.227
  342.0          10.000
  341.0          10.000
  340.0          7.058
  339.0          8.317
  338.0          8.643
  337.0          5.323
  336.0          9.135
  335.0          9.435
  334.0          10.000
  333.0          6.059
  332.0          9.734
  331.0          7.058
  330.0          10.000
  329.0          8.859
  328.0          8.582
  327.0          8.265
  326.0          7.423
  325.0          8.191
  324.0          8.257
  323.0          10.000
  322.0          5.928
  321.0          8.984
  320.0          6.841
  319.0          5.549
  318.0          10.000
  317.0          5.755
  316.0          6.005
  315.0          9.604

  314.0          5.982
  313.0          10.000
  312.0          6.480
  311.0          8.512
  310.0          10.000
  309.0          5.669
  308.0          6.044
  307.0          8.555
  306.0          8.514
  305.0          5.443
  304.0          10.000
  303.0          9.291
  302.0          6.425
  301.0          10.000

[Graphics:Overlaid 1]
