
Continuum:          CURRENT:1

Date/Time Stored:   Mon Jul 22, 2002 10:29:16
Application:        Cary
Method:             SAMPLES:DEFAULT


Comment:            NASA, AMES RESEARCH CENTER, 520DF5, #881/0229  GWJ (@ 23-c)
Calculation:        


UV SBW:                       1.50 nanometers
Wavelength UV Rate:           300.000 nanometers/minute
Wavelength UV Interval:       0.165 nanometers
Wavelength UV SAT:            0.0333 seconds
UV Energy:                    1819.701 

Indep NIR Mode:               Off 

Baseline Correct:             On  

Current Cycle No:             1 

Source Change WL:             360.0 nanometers
Detector Change WL:           860.0 nanometers

Beam Mode:                    Double beam 
Beam Interchange:             Normal 

Slit Height:                  Full height 

Signal/Noise Mode:            Off 

Abscissa Mode:                Wavelength /nm 
Abscissa Control:             Normal
Min. Abscissa Value:          300.165 
Max. Abscissa Value:          1200 

Prim Ordinate Mode:           A 
Prim Ord Factor:              1 
Min. Ordinate Value:          0.220006 
Max. Ordinate Value:          9.9999 










X-Y PAIRS

Over Abscissa Range 300.165 Wavelength /nm to 1200 Wavelength /nm
Using Abscissa Interval: 1 Wavelength /nm

 Wavelength /nm      A      
 ============== =========== 

  1200           10.000
  1199           7.766
  1198           10.000
  1197           10.000
  1196           10.000
  1195           10.000
  1194           10.000
  1193           10.000
  1192           5.806
  1191           10.000
  1190           10.000
  1189           10.000
  1188           10.000
  1187           10.000
  1186           5.341
  1185           10.000
  1184           10.000
  1183           10.000
  1182           10.000
  1181           10.000
  1180           6.073
  1179           10.000
  1178           10.000
  1177           10.000
  1176           10.000
  1175           10.000
  1174           10.000
  1173           10.000
  1172           10.000
  1171           8.974
  1170           10.000

  1169           10.000
  1168           10.000
  1167           10.000
  1166           8.033
  1165           10.000
  1164           6.304
  1163           8.978
  1162           7.785
  1161           9.015
  1160           5.901
  1159           10.000
  1158           10.000
  1157           10.000
  1156           10.000
  1155           9.214
  1154           6.378
  1153           6.301
  1152           10.000
  1151           10.000
  1150           8.148
  1149           5.741
  1148           5.907
  1147           10.000
  1146           10.000
  1145           10.000
  1144           6.061
  1143           9.073
  1142           8.446
  1141           6.727
  1140           10.000
  1139           10.000
  1138           5.853
  1137           6.207
  1136           6.063
  1135           5.851
  1134           10.000
  1133           10.000
  1132           6.304
  1131           7.045
  1130           6.414
  1129           8.948
  1128           10.000
  1127           9.015
  1126           6.621
  1125           10.000

  1124           10.000
  1123           10.000
  1122           10.000
  1121           7.719
  1120           10.000
  1119           10.000
  1118           10.000
  1117           8.975
  1116           5.902
  1115           7.715
  1114           10.000
  1113           10.000
  1112           5.902
  1111           5.574
  1110           8.475
  1109           10.000
  1108           10.000
  1107           10.000
  1106           10.000
  1105           7.045
  1104           10.000
  1103           10.000
  1102           10.000
  1101           6.837
  1100           10.000
  1099           10.000
  1098           7.808
  1097           9.244
  1096           10.000
  1095           10.000
  1094           10.000
  1093           10.000
  1092           5.898
  1091           8.944
  1090           10.000
  1089           10.000
  1088           10.000
  1087           10.000
  1086           8.165
  1085           10.000
  1084           10.000
  1083           10.000
  1082           10.000
  1081           10.000
  1080           10.000

  1079           9.332
  1078           8.681
  1077           10.000
  1076           10.000
  1075           10.000
  1074           10.000
  1073           9.019
  1072           5.908
  1071           5.218
  1070           10.000
  1069           6.934
  1068           10.000
  1067           9.021
  1066           7.715
  1065           10.000
  1064           10.000
  1063           10.000
  1062           10.000
  1061           10.000
  1060           10.000
  1059           10.000
  1058           7.893
  1057           10.000
  1056           10.000
  1055           10.000
  1054           7.891
  1053           10.000
  1052           10.000
  1051           10.000
  1050           10.000
  1049           10.000
  1048           10.000
  1047           10.000
  1046           8.066
  1045           10.000
  1044           10.000
  1043           10.000
  1042           10.000
  1041           8.947
  1040           10.000
  1039           10.000
  1038           10.000
  1037           10.000
  1036           10.000
  1035           10.000

  1034           10.000
  1033           10.000
  1032           10.000
  1031           10.000
  1030           10.000
  1029           10.000
  1028           10.000
  1027           10.000
  1026           10.000
  1025           10.000
  1024           10.000
  1023           9.065
  1022           7.902
  1021           8.311
  1020           10.000
  1019           9.073
  1018           10.000
  1017           10.000
  1016           10.000
  1015           10.000
  1014           10.000
  1013           10.000
  1012           10.000
  1011           10.000
  1010           10.000
  1009           10.000
  1008           10.000
  1007           10.000
  1006           10.000
  1005           10.000
  1004           6.506
  1003           10.000
  1002           7.786
  1001           6.677
  1000           10.000
  999.0          10.000
  998.0          10.000
  997.0          6.670
  996.0          10.000
  995.0          9.206
  994.0          10.000
  993.0          10.000
  992.0          10.000
  991.0          10.000
  990.0          10.000

  989.0          10.000
  988.0          10.000
  987.0          10.000
  986.0          10.000
  985.0          10.000
  984.0          10.000
  983.0          10.000
  982.0          10.000
  981.0          10.000
  980.0          10.000
  979.0          10.000
  978.0          10.000
  977.0          10.000
  976.0          10.000
  975.0          10.000
  974.0          10.000
  973.0          10.000
  972.0          10.000
  971.0          10.000
  970.0          10.000
  969.0          8.858
  968.0          10.000
  967.0          10.000
  966.0          10.000
  965.0          10.000
  964.0          10.000
  963.0          10.000
  962.0          10.000
  961.0          10.000
  960.0          10.000
  959.0          7.471
  958.0          10.000
  957.0          10.000
  956.0          10.000
  955.0          10.000
  954.0          10.000
  953.0          8.878
  952.0          10.000
  951.0          10.000
  950.0          10.000
  949.0          10.000
  948.0          10.000
  947.0          10.000
  946.0          10.000
  945.0          10.000

  944.0          10.000
  943.0          10.000
  942.0          8.029
  941.0          10.000
  940.0          10.000
  939.0          10.000
  938.0          10.000
  937.0          10.000
  936.0          10.000
  935.0          10.000
  934.0          10.000
  933.0          10.000
  932.0          10.000
  931.0          10.000
  930.0          10.000
  929.0          10.000
  928.0          10.000
  927.0          10.000
  926.0          10.000
  925.0          10.000
  924.0          10.000
  923.0          8.857
  922.0          10.000
  921.0          10.000
  920.0          10.000
  919.0          10.000
  918.0          10.000
  917.0          10.000
  916.0          10.000
  915.0          10.000
  914.0          10.000
  913.0          10.000
  912.0          10.000
  911.0          10.000
  910.0          10.000
  909.0          10.000
  908.0          10.000
  907.0          10.000
  906.0          10.000
  905.0          10.000
  904.0          10.000
  903.0          10.000
  902.0          10.000
  901.0          10.000
  900.0          10.000

  899.0          10.000
  898.0          10.000
  897.0          10.000
  896.0          10.000
  895.0          10.000
  894.0          10.000
  893.0          6.890
  892.0          10.000
  891.0          8.765
  890.0          10.000
  889.0          8.824
  888.0          10.000
  887.0          10.000
  886.0          10.000
  885.0          10.000
  884.0          10.000
  883.0          10.000
  882.0          10.000
  881.0          10.000
  880.0          10.000
  879.0          10.000
  878.0          10.000
  877.0          10.000
  876.0          10.000
  875.0          10.000
  874.0          10.000
  873.0          10.000
  872.0          10.000
  871.0          10.000
  870.0          7.588
  869.0          10.000
  868.0          10.000
  867.0          10.000
  866.0          10.000
  865.0          10.000
  864.0          10.000
  863.0          10.000
  862.0          10.000
  861.0          10.000
  860.0          10.000
  859.0          5.721
  858.0          5.745
  857.0          8.952
  856.0          10.000
  855.0          7.161

  854.0          7.218
  853.0          7.769
  852.0          10.000
  851.0          8.112
  850.0          5.282
  849.0          8.669
  848.0          6.285
  847.0          5.517
  846.0          5.570
  845.0          5.712
  844.0          5.398
  843.0          10.000
  842.0          9.316
  841.0          5.907
  840.0          10.000
  839.0          10.000
  838.0          5.612
  837.0          10.000
  836.0          8.831
  835.0          8.020
  834.0          8.305
  833.0          6.920
  832.0          8.901
  831.0          5.483
  830.0          9.572
  829.0          5.543
  828.0          10.00
  827.0          5.258
  826.0          10.000
  825.0          10.000
  824.0          9.099
  823.0          5.964
  822.0          5.921
  821.0          5.517
  820.0          5.456
  819.0          7.507
  818.0          5.639
  817.0          7.072
  816.0          8.769
  815.0          5.414
  814.0          6.193
  813.0          5.938
  812.0          5.416
  811.0          10.000
  810.0          5.914

  809.0          10.000
  808.0          5.484
  807.0          6.412
  806.0          9.083
  805.0          6.530
  804.0          6.504
  803.0          7.877
  802.0          7.471
  801.0          5.902
  800.0          6.791
  799.0          5.619
  798.0          10.000
  797.0          5.910
  796.0          9.749
  795.0          5.559
  794.0          9.756
  793.0          5.589
  792.0          5.939
  791.0          5.666
  790.0          6.260
  789.0          8.405
  788.0          8.065
  787.0          7.895
  786.0          5.898
  785.0          8.506
  784.0          6.655
  783.0          10.000
  782.0          8.043
  781.0          9.458
  780.0          6.261
  779.0          6.442
  778.0          9.901
  777.0          5.971
  776.0          5.748
  775.0          5.845
  774.0          7.191
  773.0          5.905
  772.0          10.000
  771.0          5.907
  770.0          8.091
  769.0          6.047
  768.0          5.940
  767.0          5.672
  766.0          6.640
  765.0          6.405

  764.0          6.202
  763.0          10.000
  762.0          5.637
  761.0          6.032
  760.0          9.547
  759.0          10.000
  758.0          6.936
  757.0          8.793
  756.0          6.847
  755.0          6.319
  754.0          6.410
  753.0          6.077
  752.0          5.986
  751.0          10.000
  750.0          9.147
  749.0          6.258
  748.0          5.787
  747.0          6.078
  746.0          6.067
  745.0          7.220
  744.0          5.882
  743.0          5.959
  742.0          6.031
  741.0          6.915
  740.0          5.837
  739.0          7.682
  738.0          6.191
  737.0          6.258
  736.0          5.870
  735.0          8.024
  734.0          6.160
  733.0          10.000
  732.0          7.080
  731.0          7.628
  730.0          7.645
  729.0          10.00
  728.0          6.136
  727.0          7.354
  726.0          9.324
  725.0          7.431
  724.0          6.655
  723.0          7.583
  722.0          6.529
  721.0          6.122
  720.0          6.195

  719.0          6.293
  718.0          8.794
  717.0          9.063
  716.0          6.524
  715.0          6.013
  714.0          6.476
  713.0          6.154
  712.0          6.003
  711.0          6.263
  710.0          6.769
  709.0          6.721
  708.0          6.160
  707.0          7.752
  706.0          8.469
  705.0          6.399
  704.0          6.751
  703.0          8.063
  702.0          7.682
  701.0          10.000
  700.0          6.163
  699.0          6.411
  698.0          9.545
  697.0          6.611
  696.0          6.633
  695.0          7.937
  694.0          6.712
  693.0          9.368
  692.0          6.588
  691.0          6.408
  690.0          6.116
  689.0          6.621
  688.0          6.356
  687.0          6.290
  686.0          6.718
  685.0          6.428
  684.0          6.208
  683.0          6.650
  682.0          7.009
  681.0          6.433
  680.0          9.881
  679.0          7.013
  678.0          6.825
  677.0          6.399
  676.0          6.705
  675.0          6.788

  674.0          6.382
  673.0          6.611
  672.0          6.711
  671.0          6.276
  670.0          10.000
  669.0          7.627
  668.0          6.939
  667.0          6.584
  666.0          6.324
  665.0          6.572
  664.0          7.144
  663.0          6.571
  662.0          6.200
  661.0          6.607
  660.0          6.546
  659.0          7.143
  658.0          6.377
  657.0          6.674
  656.0          6.604
  655.0          6.682
  654.0          6.660
  653.0          6.631
  652.0          8.839
  651.0          6.784
  650.0          6.526
  649.0          6.694
  648.0          6.788
  647.0          6.896
  646.0          7.871
  645.0          6.989
  644.0          6.558
  643.0          6.557
  642.0          6.753
  641.0          6.615
  640.0          6.822
  639.0          6.670
  638.0          6.841
  637.0          6.668
  636.0          6.753
  635.0          6.815
  634.0          6.708
  633.0          6.460
  632.0          6.920
  631.0          6.785
  630.0          6.373

  629.0          6.992
  628.0          6.961
  627.0          6.460
  626.0          6.781
  625.0          6.604
  624.0          8.716
  623.0          6.560
  622.0          6.546
  621.0          6.571
  620.0          8.738
  619.0          6.770
  618.0          6.637
  617.0          6.619
  616.0          6.912
  615.0          6.902
  614.0          9.910
  613.0          6.727
  612.0          6.861
  611.0          7.023
  610.0          7.210
  609.0          6.684
  608.0          7.218
  607.0          6.929
  606.0          7.090
  605.0          8.335
  604.0          8.108
  603.0          6.918
  602.0          6.806
  601.0          7.104
  600.0          9.421
  599.0          6.725
  598.0          6.948
  597.0          6.808
  596.0          10.000
  595.0          6.870
  594.0          9.419
  593.0          7.670
  592.0          6.815
  591.0          10.000
  590.0          8.339
  589.0          6.816
  588.0          8.578
  587.0          10.000
  586.0          6.693
  585.0          6.924

  584.0          9.206
  583.0          6.955
  582.0          6.630
  581.0          6.273
  580.0          9.908
  579.0          7.218
  578.0          6.414
  577.0          7.800
  576.0          6.248
  575.0          6.436
  574.0          8.672
  573.0          6.615
  572.0          6.374
  571.0          6.362
  570.0          6.540
  569.0          7.904
  568.0          6.313
  567.0          6.773
  566.0          6.162
  565.0          6.356
  564.0          6.250
  563.0          6.251
  562.0          6.205
  561.0          9.309
  560.0          6.098
  559.0          6.143
  558.0          6.226
  557.0          6.325
  556.0          6.195
  555.0          6.218
  554.0          6.188
  553.0          6.334
  552.0          5.997
  551.0          6.235
  550.0          6.211
  549.0          6.139
  548.0          5.906
  547.0          5.732
  546.0          5.667
  545.0          5.651
  544.0          5.448
  543.0          5.286
  542.0          5.248
  541.0          5.109
  540.0          5.032

  539.0          4.932
  538.0          4.937
  537.0          4.839
  536.0          4.769
  535.0          4.647
  534.0          4.559
  533.0          4.356
  532.0          4.192
  531.0          3.983
  530.0          3.723
  529.0          3.443
  528.0          3.109
  527.0          2.728
  526.0          2.315
  525.0          1.893
  524.0          1.464
  523.0          1.025
  522.0          0.6162
  521.0          0.3349
  520.0          0.2318
  519.0          0.2224
  518.0          0.2322
  517.0          0.3243
  516.0          0.6457
  515.0          1.232
  514.0          1.892
  513.0          2.453
  512.0          2.921
  511.0          3.305
  510.0          3.613
  509.0          3.862
  508.0          4.063
  507.0          4.216
  506.0          4.340
  505.0          4.430
  504.0          4.550
  503.0          4.647
  502.0          4.845
  501.0          5.045
  500.0          5.202
  499.0          5.386
  498.0          5.499
  497.0          5.628
  496.0          6.025
  495.0          5.939

  494.0          5.957
  493.0          5.876
  492.0          5.976
  491.0          6.074
  490.0          6.046
  489.0          6.373
  488.0          6.277
  487.0          6.521
  486.0          7.416
  485.0          6.260
  484.0          6.101
  483.0          6.556
  482.0          6.359
  481.0          6.146
  480.0          7.216
  479.0          6.199
  478.0          6.468
  477.0          8.967
  476.0          7.530
  475.0          6.405
  474.0          6.557
  473.0          6.344
  472.0          6.425
  471.0          8.676
  470.0          6.630
  469.0          9.084
  468.0          7.302
  467.0          6.657
  466.0          7.029
  465.0          6.364
  464.0          6.089
  463.0          6.940
  462.0          6.370
  461.0          7.441
  460.0          6.852
  459.0          7.244
  458.0          6.500
  457.0          8.333
  456.0          6.882
  455.0          6.671
  454.0          7.574
  453.0          7.355
  452.0          6.580
  451.0          9.532
  450.0          10.000

  449.0          6.103
  448.0          6.662
  447.0          9.737
  446.0          9.479
  445.0          7.287
  444.0          7.325
  443.0          6.231
  442.0          8.523
  441.0          10.000
  440.0          8.305
  439.0          6.675
  438.0          8.748
  437.0          8.924
  436.0          7.505
  435.0          9.330
  434.0          9.569
  433.0          6.521
  432.0          6.147
  431.0          9.769
  430.0          7.765
  429.0          6.330
  428.0          9.066
  427.0          6.366
  426.0          7.664
  425.0          8.605
  424.0          9.035
  423.0          7.123
  422.0          10.000
  421.0          10.000
  420.0          6.257
  419.0          10.000
  418.0          6.011
  417.0          6.367
  416.0          6.607
  415.0          6.229
  414.0          8.221
  413.0          7.205
  412.0          6.401
  411.0          10.000
  410.0          8.683
  409.0          8.006
  408.0          8.307
  407.0          8.112
  406.0          8.367
  405.0          6.089

  404.0          10.000
  403.0          10.000
  402.0          7.246
  401.0          6.421
  400.0          5.835
  399.0          6.463
  398.0          6.717
  397.0          6.364
  396.0          5.941
  395.0          9.042
  394.0          7.655
  393.0          7.491
  392.0          6.568
  391.0          8.408
  390.0          10.000
  389.0          5.889
  388.0          6.065
  387.0          10.000
  386.0          10.000
  385.0          10.000
  384.0          6.021
  383.0          10.000
  382.0          6.677
  381.0          6.032
  380.0          6.184
  379.0          9.158
  378.0          8.837
  377.0          10.000
  376.0          8.291
  375.0          10.000
  374.0          7.753
  373.0          10.000
  372.0          5.739
  371.0          8.743
  370.0          6.802
  369.0          9.167
  368.0          9.441
  367.0          6.602
  366.0          5.418
  365.0          10.000
  364.0          5.624
  363.0          5.159
  362.0          8.830
  361.0          6.584
  360.0          10.000

  359.0          5.280
  358.0          7.526
  357.0          5.161
  356.0          4.912
  355.0          8.182
  354.0          10.000
  353.0          9.000
  352.0          10.000
  351.0          5.124
  350.0          6.180
  349.0          10.000
  348.0          5.412
  347.0          10.000
  346.0          9.132
  345.0          10.000
  344.0          8.644
  343.0          10.000
  342.0          10.000
  341.0          7.573
  340.0          10.000
  339.0          8.439
  338.0          5.673
  337.0          10.000
  336.0          6.124
  335.0          5.778
  334.0          9.707
  333.0          5.747
  332.0          10.000
  331.0          10.000
  330.0          6.021
  329.0          10.000
  328.0          8.702
  327.0          7.068
  326.0          5.971
  325.0          10.000
  324.0          10.000
  323.0          5.874
  322.0          6.958
  321.0          8.810
  320.0          5.971
  319.0          9.334
  318.0          9.620
  317.0          9.861
  316.0          10.000
  315.0          6.164

  314.0          6.438
  313.0          9.184
  312.0          8.695
  311.0          7.178
  310.0          10.000
  309.0          7.505
  308.0          7.713
  307.0          6.522
  306.0          6.111
  305.0          8.864
  304.0          10.000
  303.0          6.085
  302.0          10.000
  301.0          9.707

[Graphics:Overlaid 1]
