
Continuum:          CURRENT:3

Date/Time Stored:   Mon Jul 22, 2002 10:40:35
Application:        Cary
Method:             SAMPLES:DEFAULT


Comment:            NASA, AMES RESEARCH CENTER, 605DF5, #883/0229  GWJ (@ 23-c)
Calculation:        


UV SBW:                       1.50 nanometers
Wavelength UV Rate:           300.000 nanometers/minute
Wavelength UV Interval:       0.165 nanometers
Wavelength UV SAT:            0.0333 seconds
UV Energy:                    1819.701 

Indep NIR Mode:               Off 

Baseline Correct:             On  

Current Cycle No:             1 

Source Change WL:             360.0 nanometers
Detector Change WL:           860.0 nanometers

Beam Mode:                    Double beam 
Beam Interchange:             Normal 

Slit Height:                  Full height 

Signal/Noise Mode:            Off 

Abscissa Mode:                Wavelength /nm 
Abscissa Control:             Normal
Min. Abscissa Value:          300.165 
Max. Abscissa Value:          1200 

Prim Ordinate Mode:           A 
Prim Ord Factor:              1 
Min. Ordinate Value:          0.222856 
Max. Ordinate Value:          9.9999 










X-Y PAIRS

Over Abscissa Range 300.165 Wavelength /nm to 1200 Wavelength /nm
Using Abscissa Interval: 1 Wavelength /nm

 Wavelength /nm      A      
 ============== =========== 

  1200           5.563
  1199           5.819
  1198           7.760
  1197           8.980
  1196           5.642
  1195           5.426
  1194           7.966
  1193           8.928
  1192           6.079
  1191           6.221
  1190           5.943
  1189           6.943
  1188           10.000
  1187           10.000
  1186           8.037
  1185           9.235
  1184           5.921
  1183           6.318
  1182           10.000
  1181           6.622
  1180           5.472
  1179           7.061
  1178           6.115
  1177           7.683
  1176           10.000
  1175           10.000
  1174           7.675
  1173           10.000
  1172           5.914
  1171           5.868
  1170           10.000

  1169           7.660
  1168           10.000
  1167           10.000
  1166           8.152
  1165           9.076
  1164           10.000
  1163           5.632
  1162           8.149
  1161           9.215
  1160           5.901
  1159           10.000
  1158           7.759
  1157           10.000
  1156           5.915
  1155           7.049
  1154           6.459
  1153           10.000
  1152           10.000
  1151           7.233
  1150           7.854
  1149           10.000
  1148           10.000
  1147           5.820
  1146           10.000
  1145           8.925
  1144           10.000
  1143           6.201
  1142           5.990
  1141           7.051
  1140           6.308
  1139           7.049
  1138           8.455
  1137           10.000
  1136           10.000
  1135           7.231
  1134           8.460
  1133           6.842
  1132           5.412
  1131           10.000
  1130           8.031
  1129           9.077
  1128           5.904
  1127           7.714
  1126           8.476
  1125           6.068

  1124           5.905
  1123           9.078
  1122           8.030
  1121           6.141
  1120           5.505
  1119           5.941
  1118           5.846
  1117           6.927
  1116           6.310
  1115           10.000
  1114           10.000
  1113           9.015
  1112           10.000
  1111           10.000
  1110           10.000
  1109           5.916
  1108           5.619
  1107           5.873
  1106           8.029
  1105           7.233
  1104           5.555
  1103           6.166
  1102           7.949
  1101           8.922
  1100           10.000
  1099           5.870
  1098           8.492
  1097           7.235
  1096           5.493
  1095           9.255
  1094           7.950
  1093           10.000
  1092           10.000
  1091           5.500
  1090           5.527
  1089           7.819
  1088           10.000
  1087           10.000
  1086           5.887
  1085           5.711
  1084           6.337
  1083           6.767
  1082           5.980
  1081           6.155
  1080           7.320

  1079           8.975
  1078           10.000
  1077           5.915
  1076           5.903
  1075           6.708
  1074           5.626
  1073           8.976
  1072           5.485
  1071           5.465
  1070           5.614
  1069           5.938
  1068           10.000
  1067           5.594
  1066           7.740
  1065           5.756
  1064           6.417
  1063           5.650
  1062           7.691
  1061           6.937
  1060           6.103
  1059           8.843
  1058           5.194
  1057           5.550
  1056           6.108
  1055           5.696
  1054           6.197
  1053           5.472
  1052           5.417
  1051           5.793
  1050           5.455
  1049           5.655
  1048           5.931
  1047           5.744
  1046           8.067
  1045           5.959
  1044           5.100
  1043           6.762
  1042           8.308
  1041           5.830
  1040           10.000
  1039           8.850
  1038           10.000
  1037           8.985
  1036           10.000
  1035           10.000

  1034           7.976
  1033           6.761
  1032           10.000
  1031           10.000
  1030           6.288
  1029           6.006
  1028           5.962
  1027           5.681
  1026           7.899
  1025           5.493
  1024           5.687
  1023           6.859
  1022           10.000
  1021           6.987
  1020           10.000
  1019           8.952
  1018           10.000
  1017           10.000
  1016           10.000
  1015           5.875
  1014           10.000
  1013           6.623
  1012           5.817
  1011           8.955
  1010           10.000
  1009           8.921
  1008           10.000
  1007           10.000
  1006           5.360
  1005           6.764
  1004           10.000
  1003           6.617
  1002           8.279
  1001           10.000
  1000           6.066
  999.0          8.896
  998.0          8.340
  997.0          8.818
  996.0          5.287
  995.0          10.000
  994.0          7.842
  993.0          10.000
  992.0          7.030
  991.0          10.000
  990.0          10.000

  989.0          10.000
  988.0          10.000
  987.0          10.000
  986.0          7.780
  985.0          10.000
  984.0          10.000
  983.0          10.000
  982.0          10.000
  981.0          10.000
  980.0          10.000
  979.0          6.145
  978.0          5.848
  977.0          8.809
  976.0          6.265
  975.0          5.634
  974.0          7.775
  973.0          5.406
  972.0          6.308
  971.0          6.919
  970.0          5.561
  969.0          8.858
  968.0          10.000
  967.0          6.567
  966.0          7.952
  965.0          10.000
  964.0          6.453
  963.0          7.361
  962.0          7.623
  961.0          8.782
  960.0          10.000
  959.0          8.853
  958.0          8.339
  957.0          8.879
  956.0          5.511
  955.0          9.231
  954.0          6.352
  953.0          10.000
  952.0          10.000
  951.0          6.465
  950.0          7.839
  949.0          10.000
  948.0          5.371
  947.0          10.000
  946.0          10.000
  945.0          8.874

  944.0          10.000
  943.0          10.000
  942.0          7.672
  941.0          10.000
  940.0          10.000
  939.0          10.000
  938.0          10.000
  937.0          10.000
  936.0          10.000
  935.0          10.000
  934.0          10.000
  933.0          5.359
  932.0          10.000
  931.0          10.000
  930.0          10.000
  929.0          10.000
  928.0          10.000
  927.0          10.000
  926.0          10.000
  925.0          10.000
  924.0          6.486
  923.0          10.000
  922.0          10.000
  921.0          10.000
  920.0          10.000
  919.0          10.000
  918.0          10.000
  917.0          10.000
  916.0          10.000
  915.0          10.000
  914.0          10.000
  913.0          10.000
  912.0          10.000
  911.0          10.000
  910.0          10.000
  909.0          10.000
  908.0          10.000
  907.0          10.000
  906.0          10.000
  905.0          10.000
  904.0          10.000
  903.0          10.000
  902.0          10.000
  901.0          10.000
  900.0          10.000

  899.0          6.505
  898.0          10.000
  897.0          10.000
  896.0          10.000
  895.0          10.000
  894.0          10.000
  893.0          10.000
  892.0          10.000
  891.0          10.000
  890.0          10.000
  889.0          10.000
  888.0          10.000
  887.0          10.000
  886.0          10.000
  885.0          10.000
  884.0          10.000
  883.0          10.000
  882.0          10.000
  881.0          10.000
  880.0          10.000
  879.0          10.000
  878.0          10.000
  877.0          10.000
  876.0          10.000
  875.0          10.000
  874.0          10.000
  873.0          10.000
  872.0          10.000
  871.0          10.000
  870.0          10.000
  869.0          10.000
  868.0          10.000
  867.0          10.000
  866.0          6.973
  865.0          10.000
  864.0          10.000
  863.0          10.000
  862.0          10.000
  861.0          10.000
  860.0          10.000
  859.0          6.083
  858.0          9.348
  857.0          10.000
  856.0          6.483
  855.0          10.000

  854.0          10.000
  853.0          7.411
  852.0          5.266
  851.0          5.404
  850.0          10.000
  849.0          5.111
  848.0          10.000
  847.0          5.641
  846.0          10.000
  845.0          5.215
  844.0          8.483
  843.0          7.164
  842.0          9.276
  841.0          5.463
  840.0          8.809
  839.0          10.000
  838.0          10.000
  837.0          6.099
  836.0          5.474
  835.0          10.000
  834.0          7.799
  833.0          10.000
  832.0          10.000
  831.0          9.335
  830.0          6.765
  829.0          5.861
  828.0          5.586
  827.0          6.779
  826.0          10.000
  825.0          5.583
  824.0          6.808
  823.0          5.432
  822.0          5.357
  821.0          10.000
  820.0          7.570
  819.0          7.303
  818.0          7.145
  817.0          8.827
  816.0          7.055
  815.0          5.591
  814.0          6.628
  813.0          5.458
  812.0          9.868
  811.0          5.626
  810.0          10.000

  809.0          9.442
  808.0          9.282
  807.0          7.174
  806.0          8.716
  805.0          10.000
  804.0          6.300
  803.0          8.433
  802.0          8.109
  801.0          7.544
  800.0          8.614
  799.0          8.949
  798.0          6.511
  797.0          9.481
  796.0          6.062
  795.0          5.838
  794.0          6.052
  793.0          5.597
  792.0          9.415
  791.0          9.139
  790.0          7.212
  789.0          5.953
  788.0          7.756
  787.0          7.820
  786.0          8.036
  785.0          8.309
  784.0          6.602
  783.0          8.898
  782.0          10.000
  781.0          9.431
  780.0          9.658
  779.0          7.240
  778.0          7.172
  777.0          6.352
  776.0          6.401
  775.0          6.573
  774.0          7.841
  773.0          7.917
  772.0          5.869
  771.0          8.112
  770.0          6.325
  769.0          10.000
  768.0          10.000
  767.0          7.447
  766.0          6.707
  765.0          9.244

  764.0          5.932
  763.0          6.589
  762.0          10.000
  761.0          10.000
  760.0          5.852
  759.0          10.000
  758.0          9.061
  757.0          7.343
  756.0          10.000
  755.0          10.000
  754.0          6.180
  753.0          5.976
  752.0          7.379
  751.0          7.281
  750.0          7.203
  749.0          7.183
  748.0          9.553
  747.0          9.673
  746.0          6.243
  745.0          6.312
  744.0          5.970
  743.0          5.964
  742.0          6.653
  741.0          10.000
  740.0          10.000
  739.0          8.538
  738.0          6.356
  737.0          8.005
  736.0          6.154
  735.0          7.336
  734.0          10.000
  733.0          9.003
  732.0          9.301
  731.0          6.559
  730.0          7.689
  729.0          10.000
  728.0          6.108
  727.0          7.373
  726.0          6.182
  725.0          6.384
  724.0          8.801
  723.0          8.991
  722.0          8.470
  721.0          8.037
  720.0          8.804

  719.0          7.811
  718.0          7.929
  717.0          8.875
  716.0          6.508
  715.0          6.430
  714.0          6.318
  713.0          6.362
  712.0          6.238
  711.0          9.662
  710.0          6.997
  709.0          9.274
  708.0          10.000
  707.0          6.700
  706.0          8.824
  705.0          6.386
  704.0          6.849
  703.0          10.000
  702.0          8.687
  701.0          8.945
  700.0          8.393
  699.0          10.000
  698.0          6.292
  697.0          7.505
  696.0          6.569
  695.0          7.929
  694.0          6.986
  693.0          7.457
  692.0          7.447
  691.0          9.030
  690.0          6.592
  689.0          6.352
  688.0          6.379
  687.0          8.355
  686.0          10.000
  685.0          9.196
  684.0          7.220
  683.0          9.374
  682.0          7.999
  681.0          7.077
  680.0          7.744
  679.0          10.000
  678.0          10.000
  677.0          10.000
  676.0          7.158
  675.0          9.067

  674.0          6.617
  673.0          7.960
  672.0          6.464
  671.0          10.000
  670.0          7.075
  669.0          7.228
  668.0          7.391
  667.0          7.330
  666.0          6.911
  665.0          10.000
  664.0          6.971
  663.0          6.705
  662.0          9.797
  661.0          9.670
  660.0          6.946
  659.0          6.632
  658.0          6.862
  657.0          6.603
  656.0          7.453
  655.0          8.181
  654.0          6.561
  653.0          6.652
  652.0          6.550
  651.0          7.540
  650.0          6.864
  649.0          6.535
  648.0          6.734
  647.0          7.110
  646.0          7.154
  645.0          7.223
  644.0          7.155
  643.0          6.507
  642.0          6.934
  641.0          6.736
  640.0          6.634
  639.0          6.671
  638.0          6.580
  637.0          6.409
  636.0          6.412
  635.0          7.585
  634.0          6.414
  633.0          6.415
  632.0          6.361
  631.0          6.557
  630.0          6.210

  629.0          6.286
  628.0          6.170
  627.0          6.365
  626.0          6.182
  625.0          6.189
  624.0          5.996
  623.0          5.904
  622.0          5.888
  621.0          5.696
  620.0          5.502
  619.0          5.363
  618.0          5.102
  617.0          4.910
  616.0          4.624
  615.0          4.334
  614.0          3.989
  613.0          3.617
  612.0          3.185
  611.0          2.733
  610.0          2.238
  609.0          1.742
  608.0          1.113
  607.0          0.6101
  606.0          0.3314
  605.0          0.2425
  604.0          0.2232
  603.0          0.2559
  602.0          0.4379
  601.0          0.9370
  600.0          1.645
  599.0          2.325
  598.0          2.858
  597.0          3.314
  596.0          3.656
  595.0          3.968
  594.0          4.186
  593.0          4.402
  592.0          4.576
  591.0          4.704
  590.0          4.858
  589.0          4.996
  588.0          5.160
  587.0          5.318
  586.0          5.515
  585.0          5.800

  584.0          5.864
  583.0          5.916
  582.0          6.153
  581.0          6.170
  580.0          6.404
  579.0          6.250
  578.0          6.195
  577.0          7.058
  576.0          6.387
  575.0          6.602
  574.0          6.675
  573.0          6.752
  572.0          6.747
  571.0          6.501
  570.0          6.645
  569.0          7.376
  568.0          9.295
  567.0          10.000
  566.0          6.558
  565.0          6.833
  564.0          7.263
  563.0          6.312
  562.0          7.588
  561.0          6.652
  560.0          7.256
  559.0          9.104
  558.0          10.000
  557.0          6.638
  556.0          6.567
  555.0          6.859
  554.0          7.762
  553.0          8.928
  552.0          9.154
  551.0          9.270
  550.0          6.746
  549.0          10.000
  548.0          10.000
  547.0          9.897
  546.0          7.815
  545.0          6.533
  544.0          6.818
  543.0          7.178
  542.0          8.876
  541.0          6.776
  540.0          6.760

  539.0          8.590
  538.0          8.432
  537.0          8.748
  536.0          7.022
  535.0          9.130
  534.0          10.000
  533.0          9.569
  532.0          7.233
  531.0          7.265
  530.0          9.793
  529.0          7.601
  528.0          6.315
  527.0          9.141
  526.0          6.187
  525.0          7.897
  524.0          8.148
  523.0          8.129
  522.0          7.612
  521.0          6.557
  520.0          6.472
  519.0          8.040
  518.0          9.318
  517.0          6.431
  516.0          6.428
  515.0          6.168
  514.0          6.887
  513.0          9.720
  512.0          6.798
  511.0          6.374
  510.0          9.020
  509.0          9.509
  508.0          10.000
  507.0          6.376
  506.0          6.158
  505.0          6.398
  504.0          6.498
  503.0          6.466
  502.0          6.539
  501.0          10.000
  500.0          9.590
  499.0          7.052
  498.0          6.897
  497.0          9.789
  496.0          5.875
  495.0          6.100

  494.0          7.566
  493.0          10.000
  492.0          8.594
  491.0          8.427
  490.0          6.777
  489.0          10.000
  488.0          6.495
  487.0          6.664
  486.0          6.449
  485.0          7.131
  484.0          6.945
  483.0          9.657
  482.0          6.345
  481.0          9.907
  480.0          6.286
  479.0          7.033
  478.0          6.362
  477.0          10.000
  476.0          6.729
  475.0          7.215
  474.0          8.402
  473.0          10.000
  472.0          7.957
  471.0          7.325
  470.0          10.000
  469.0          7.390
  468.0          6.591
  467.0          10.000
  466.0          7.341
  465.0          7.379
  464.0          10.000
  463.0          10.000
  462.0          10.000
  461.0          7.214
  460.0          8.797
  459.0          6.358
  458.0          8.226
  457.0          7.639
  456.0          10.000
  455.0          6.495
  454.0          6.607
  453.0          10.000
  452.0          7.106
  451.0          6.799
  450.0          6.731

  449.0          6.787
  448.0          10.000
  447.0          6.691
  446.0          6.434
  445.0          6.390
  444.0          6.625
  443.0          6.386
  442.0          6.265
  441.0          8.336
  440.0          8.066
  439.0          8.516
  438.0          7.645
  437.0          8.766
  436.0          6.468
  435.0          7.390
  434.0          6.598
  433.0          7.103
  432.0          10.00
  431.0          9.847
  430.0          6.161
  429.0          10.000
  428.0          9.381
  427.0          7.767
  426.0          7.473
  425.0          10.000
  424.0          8.094
  423.0          6.400
  422.0          10.000
  421.0          10.000
  420.0          8.989
  419.0          7.029
  418.0          6.583
  417.0          7.363
  416.0          10.000
  415.0          10.000
  414.0          6.231
  413.0          10.000
  412.0          7.020
  411.0          8.812
  410.0          7.352
  409.0          7.695
  408.0          8.401
  407.0          5.958
  406.0          7.702
  405.0          7.652

  404.0          10.000
  403.0          7.002
  402.0          6.580
  401.0          9.583
  400.0          9.837
  399.0          10.00
  398.0          9.748
  397.0          6.104
  396.0          5.998
  395.0          5.976
  394.0          6.352
  393.0          7.905
  392.0          7.675
  391.0          7.672
  390.0          7.905
  389.0          10.000
  388.0          6.056
  387.0          10.000
  386.0          6.433
  385.0          10.000
  384.0          9.655
  383.0          5.641
  382.0          9.889
  381.0          6.293
  380.0          5.928
  379.0          10.000
  378.0          6.423
  377.0          10.000
  376.0          7.487
  375.0          8.054
  374.0          7.999
  373.0          5.724
  372.0          6.167
  371.0          5.750
  370.0          7.118
  369.0          10.000
  368.0          9.452
  367.0          10.000
  366.0          10.00
  365.0          10.000
  364.0          6.831
  363.0          6.758
  362.0          10.000
  361.0          5.342
  360.0          6.985

  359.0          10.000
  358.0          7.798
  357.0          7.390
  356.0          4.921
  355.0          6.529
  354.0          6.026
  353.0          9.056
  352.0          5.367
  351.0          10.000
  350.0          4.832
  349.0          10.000
  348.0          9.612
  347.0          10.000
  346.0          9.190
  345.0          4.872
  344.0          10.000
  343.0          7.496
  342.0          5.075
  341.0          7.802
  340.0          5.165
  339.0          5.006
  338.0          10.000
  337.0          5.985
  336.0          9.163
  335.0          10.000
  334.0          9.702
  333.0          10.000
  332.0          5.515
  331.0          7.176
  330.0          6.068
  329.0          6.651
  328.0          10.000
  327.0          7.015
  326.0          5.807
  325.0          7.791
  324.0          10.000
  323.0          10.000
  322.0          6.694
  321.0          8.758
  320.0          5.237
  319.0          9.315
  318.0          9.577
  317.0          10.000
  316.0          9.884
  315.0          9.663

  314.0          9.406
  313.0          5.677
  312.0          7.085
  311.0          8.426
  310.0          10.000
  309.0          7.969
  308.0          5.539
  307.0          10.000
  306.0          7.235
  305.0          10.000
  304.0          10.000
  303.0          5.628
  302.0          6.396
  301.0          9.825

[Graphics:Overlaid 1]
