%IRIS-D spectrum from 15.118N, 144.741E
%on April 27, 1970, 0202 GMT
%wavenumber (cm^-^1)   radiance (mW/m^2/sr/cm^-^1)
400.471	82.5576
401.862	92.2124
403.252	103.603
404.643	111.433
406.033	116.784
407.424	116.986
408.814	116.683
410.205	116.492
411.595	113.992
412.986	112.465
414.376	107.675
415.767	98.0336
417.157	80.1894
418.548	67.4004
419.938	78.0108
421.329	92.0385
422.719	94.2743
424.11	97.2351
425.5	100.984
426.891	108.067
428.281	113.382
429.672	108.297
431.062	104.235
432.453	112.196
433.843	113.53
435.234	108.221
436.625	109.856
438.015	115.262
439.406	113.73
440.796	98.1893
442.187	91.3304
443.577	102.609
444.968	111.066
446.358	109.904
447.749	115.221
449.139	119.805
450.53	115.854
451.92	106.884
453.311	106.86
454.701	109.282
456.092	95.7615
457.482	85.2941
458.873	98.4064
460.263	109.925
461.654	114.295
463.044	120.423
464.435	123.216
465.825	120.886
467.216	114.558
468.606	112.773
469.997	110.684
471.388	96.9073
472.778	95.1626
474.169	112.512
475.559	120.794
476.95	123.48
478.34	126.386
479.731	124.548
481.121	120.498
482.512	111.435
483.902	103.88
485.293	112.279
486.683	123.108
488.074	128.096
489.464	124.931
490.855	114.961
492.245	113.28
493.636	123.723
495.026	129.561
496.417	130.677
497.807	129.221
499.198	125.729
500.588	113.838
501.979	103.902
503.369	110.9
504.76	115.701
506.151	108.037
507.541	111.354
508.932	121.229
510.322	121.402
511.713	123.758
513.103	124.985
514.494	119.46
515.884	107.229
517.275	100.842
518.665	105.041
520.056	113.998
521.446	124.565
522.837	126.863
524.227	118.316
525.618	108.85
527.008	117.166
528.399	128.294
529.789	131.439
531.18	131.532
532.57	130.202
533.961	127.099
535.351	121.015
536.742	122.357
538.132	129.107
539.523	127.905
540.914	125.47
542.304	128.116
543.695	122.373
545.085	108.728
546.476	108.671
547.866	116.701
549.257	119.949
550.647	124.242
552.038	129.046
553.428	126.205
554.819	124.454
556.209	128.298
557.6	131.456
558.99	132.526
560.381	131.044
561.771	126.839
563.162	123.47
564.552	126.27
565.943	120.177
567.333	111.626
568.724	110.565
570.114	117.022
571.505	123.973
572.895	126.551
574.286	120.838
575.677	113.719
577.067	118.693
578.458	120.844
579.848	110.828
581.239	109.955
582.629	116.297
584.02	115.02
585.41	116.233
586.801	116.814
588.191	106.259
589.582	99.0044
590.972	97.8546
592.363	100.226
593.753	102.135
595.144	98.1047
596.534	95.8507
597.925	98.4075
599.315	99.4737
600.706	99.3832
602.096	99.6662
603.487	97.2427
604.877	96.0744
606.268	95.9856
607.658	95.5317
609.049	94.4097
610.44	93.5665
611.83	91.5074
613.221	90.8601
614.611	84.9206
616.002	69.6117
617.392	68.7342
618.783	84.0085
620.173	90.5821
621.564	88.1011
622.954	81.6755
624.345	74.8392
625.735	69.8232
627.126	66.6392
628.516	62.4408
629.907	58.4628
631.297	55.4575
632.688	52.9999
634.078	50.8953
635.469	49.0464
636.859	47.0899
638.25	45.2979
639.64	44.3495
641.031	43.4455
642.421	42.0732
643.812	41.6198
645.203	42.1522
646.593	43.5932
647.984	46.5795
649.374	46.2447
650.765	42.9566
652.155	41.9593
653.546	42.0225
654.936	42.3803
656.327	42.2557
657.717	41.2655
659.108	40.2546
660.498	41.2654
661.889	43.9222
663.279	43.7848
664.67	42.3949
666.06	47.9222
667.451	59.5759
668.841	57.4281
670.232	46.3938
671.622	42.3695
673.013	41.9897
674.403	41.4136
675.794	40.8971
677.184	40.9282
678.575	40.4853
679.966	40.5828
681.356	40.5029
682.747	39.5934
684.137	38.6866
685.528	37.8569
686.918	37.0022
688.309	37.3612
689.699	38
691.09	38.3091
692.48	38.7719
693.871	39.1171
695.261	39.7162
696.652	41.1282
698.042	42.4718
699.433	43.2057
700.823	45.1347
702.214	48.2458
703.604	51.2748
704.995	54.5305
706.385	57.5358
707.776	60.8614
709.166	64.5069
710.557	67.8879
711.947	70.5921
713.338	73.7544
714.729	76.8074
716.119	77.5997
717.51	68.634
718.9	54.1952
720.291	57.5479
721.681	78.3032
723.072	90.7296
724.462	92.3225
725.853	91.1337
727.243	88.4203
728.634	83.879
730.024	82.3034
731.415	84.9927
732.805	86.8054
734.196	87.0545
735.586	87.6385
736.977	88.2281
738.367	87.6694
739.758	81.5022
741.148	79.1878
742.539	88.3757
743.929	94.6395
745.32	98.0753
746.71	101.376
748.101	103.65
749.492	105.643
750.882	106.571
752.273	106.604
753.663	106.414
755.054	108.67
756.444	113.153
757.835	117.303
759.225	120.192
760.616	121.02
762.006	122.067
763.397	123.326
764.787	124
766.178	123.984
767.568	123.049
768.959	122.345
770.349	123.909
771.74	125.464
773.13	125.185
774.521	122.947
775.911	120.362
777.302	121.694
778.692	124.261
780.083	126.29
781.473	126.339
782.864	122.016
784.255	119.244
785.645	122.434
787.036	124.819
788.426	125.622
789.817	123.222
791.207	117.667
792.598	117.066
793.988	117.225
795.379	115.877
796.769	115.656
798.16	114.122
799.55	118.124
800.941	121.835
802.331	119.048
803.722	119.551
805.112	122.768
806.503	122.11
807.893	121.4
809.284	123.265
810.674	123.906
812.065	123.242
813.455	121.277
814.846	121.661
816.236	123.076
817.627	123.128
819.018	122.943
820.408	122.828
821.799	122.976
823.189	122.609
824.58	121.499
825.97	120.627
827.361	119.995
828.751	120.925
830.142	122.1
831.532	122.164
832.923	121.273
834.313	120.963
835.704	121.834
837.094	121.174
838.485	118.578
839.875	118.1
841.266	119.65
842.656	120.321
844.047	120.428
845.437	119.986
846.828	119.483
848.218	117.636
849.609	115.942
850.999	114.194
852.39	112.146
853.781	112.625
855.171	115.096
856.562	116.727
857.952	116.128
859.343	116.011
860.733	116.619
862.124	116.972
863.514	115.494
864.905	114.15
866.295	115.417
867.686	115.882
869.076	114.437
870.467	113.256
871.857	113.921
873.248	114.628
874.638	114.029
876.029	113.232
877.419	112.1
878.81	111.427
880.2	111.433
881.591	111.433
882.981	111.302
884.372	111.728
885.762	111.139
887.153	109.242
888.544	109.703
889.934	111.319
891.325	111.855
892.715	111.938
894.106	112.061
895.496	111.551
896.887	111.594
898.277	111.503
899.668	110.596
901.058	110.157
902.449	110.251
903.839	110.049
905.23	109.651
906.62	108.901
908.011	107.64
909.401	107.442
910.792	108.392
912.182	108.817
913.573	108.416
914.963	108.5
916.354	108.88
917.744	108.132
919.135	107.468
920.525	106.065
921.916	104.573
923.307	105.215
924.697	105.345
926.088	105.845
927.478	106.534
928.869	106.373
930.259	105.864
931.65	105.487
933.04	105.445
934.431	105.975
935.821	105.403
937.212	104.378
938.602	104.092
939.993	103.756
941.383	103.313
942.774	103.773
944.164	103.262
945.555	102.169
946.945	101.183
948.336	101.095
949.726	102.538
951.117	102.915
952.507	102.63
953.898	102.082
955.288	101.531
956.679	101.651
958.07	101.518
959.46	101.007
960.851	100.81
962.241	100.444
963.632	100.201
965.022	100.212
966.413	99.7054
967.803	99.0197
969.194	99.0558
970.584	98.8586
971.975	98.3775
973.365	97.1182
974.756	95.9085
976.146	95.925
977.537	96.9419
978.927	97.6627
980.318	97.1385
981.708	96.1819
983.099	95.737
984.489	96.0886
985.88	95.8283
987.27	95.4169
988.661	95.339
990.051	94.4765
991.442	93.061
992.833	91.9566
994.223	91.1975
995.614	90.7492
997.004	89.1019
998.395	86.585
999.785	85.3093
1001.18	85.1248
1002.57	84.2375
1003.96	82.5048
1005.35	80.9135
1006.74	79.4891
1008.13	77.5968
1009.52	75.5926
1010.91	74.0592
1012.3	72.8942
1013.69	71.4032
1015.08	69.7124
1016.47	67.8286
1017.86	65.4552
1019.25	63.7808
1020.64	62.9425
1022.03	63.1093
1023.42	62.433
1024.81	61.5677
1026.2	61.0289
1027.6	60.468
1028.99	60.0322
1030.38	60.2075
1031.77	59.7071
1033.16	57.9471
1034.55	55.7805
1035.94	53.8747
1037.33	51.4093
1038.72	49.5135
1040.11	51.3367
1041.5	62.2884
1042.89	72.0991
1044.28	69.9113
1045.67	62.7072
1047.06	55.6018
1048.45	51.3096
1049.84	49.8521
1051.23	48.5441
1052.62	47.4615
1054.02	47.8871
1055.41	49.7354
1056.8	51.4648
1058.19	52.3004
1059.58	53.1399
1060.97	55.9473
1062.36	60.8145
1063.75	65.252
1065.14	68.376
1066.53	71.808
1067.92	75.7417
1069.31	78.36
1070.7	78.7783
1072.09	77.5463
1073.48	76.5013
1074.87	77.3529
1076.26	79.5575
1077.65	79.9372
1079.04	79.8051
1080.44	79.8427
1081.83	78.9578
1083.22	77.8247
1084.61	78.1505
1086	78.7101
1087.39	79.1553
1088.78	78.2612
1090.17	76.7979
1091.56	77.6067
1092.95	79.0352
1094.34	79.4625
1095.73	79.3712
1097.12	78.5447
1098.51	76.7688
1099.9	73.9677
1101.29	74.1785
1102.68	77.3407
1104.07	77.8468
1105.46	75.3442
1106.86	74.0943
1108.25	75.735
1109.64	75.7802
1111.03	74.1999
1112.42	74.5251
1113.81	75.1383
1115.2	74.047
1116.59	73.6974
1117.98	73.8866
1119.37	71.5425
1120.76	70.302
1122.15	73.1113
1123.54	74.6807
1124.93	74.8461
1126.32	74.3638
1127.71	74.1483
1129.1	73.9587
1130.49	72.4944
1131.88	71.5122
1133.28	69.8547
1134.67	65.8747
1136.06	64.8924
1137.45	67.5978
1138.84	70.5452
1140.23	71.7821
1141.62	71.1601
1143.01	69.487
1144.4	68.9957
1145.79	68.8924
1147.18	68.2424
1148.57	65.7894
1149.96	63.4679
1151.35	62.8417
1152.74	64.2783
1154.13	66.3859
1155.52	68.1028
1156.91	68.7667
1158.3	68.2045
1159.69	67.5041
1161.09	67.0708
1162.48	65.9085
1163.87	62.4595
1165.26	61.4433
1166.65	65.0848
1168.04	66.9759
1169.43	66.586
1170.82	64.9258
1172.21	60.371
1173.6	56.1051
1174.99	57.0457
1176.38	60.5693
1177.77	62.5464
1179.16	62.8363
1180.55	63.3229
1181.94	64.2496
1183.33	62.7738
1184.72	59.5945
1186.11	56.8982
1187.51	58.2644
1188.9	61.4908
1190.29	62.7579
1191.68	63.0916
1193.07	62.8178
1194.46	62.496
1195.85	60.7405
1197.24	57.895
1198.63	59.3736
1200.02	62.2454
1201.41	62.0526
1202.8	61.6125
1204.19	60.909
1205.58	60.2453
1206.97	60.2789
1208.36	58.4407
1209.75	53.6955
1211.14	49.0506
1212.53	51.1602
1213.93	55.9877
1215.32	56.5239
1216.71	54.3851
1218.1	52.6564
1219.49	53.0437
1220.88	53.9845
1222.27	53.0318
1223.66	49.2207
1225.05	47.7242
1226.44	51.4605
1227.83	53.5591
1229.22	53.4502
1230.61	55.7401
1232	56.9489
1233.39	54.8039
1234.78	53.2056
1236.17	50.8777
1237.56	49.3444
1238.95	48.6574
1240.35	48.1186
1241.74	45.2612
1243.13	42.1105
1244.52	42.4083
1245.91	44.688
1247.3	45.372
1248.69	46.1755
1250.08	46.7526
1251.47	44.5697
1252.86	41.0033
1254.25	41.0248
1255.64	41.4
1257.03	38.423
1258.42	32.028
1259.81	26.8864
1261.2	29.5072
1262.59	32.9453
1263.98	32.0072
1265.37	29.9184
1266.76	28.1989
1268.16	25.883
1269.55	24.8799
1270.94	25.4951
1272.33	28.6672
1273.72	30.8489
1275.11	30.2657
1276.5	30.6822
1277.89	32.1861
1279.28	32.1051
1280.67	31.6458
1282.06	30.6086
1283.45	31.7375
1284.84	33.5259
1286.23	28.8916
1287.62	24.5766
1289.01	27.5368
1290.4	30.3777
1291.79	29.8364
1293.18	28.44
1294.58	26.2281
1295.97	23.8083
1297.36	23.7705
1298.75	24.4007
1300.14	21.9586
1301.53	18.3246
1302.92	16.3464
1304.31	13.2775
1305.7	18.8966
1307.09	25.6036
1308.48	29.2645
1309.87	30.0497
1311.26	26.7442
1312.65	24.7565
1314.04	26.1809
1315.43	26.5475
1316.82	24.058
1318.21	22.7454
1319.6	24.7635
1321	29.0264
1322.39	31.9536
1323.78	34.0825
1325.17	32.7159
1326.56	30.135
1327.95	31.7273
1329.34	33.3706
1330.73	31.6794
1332.12	30.1971
1333.51	30.3144
1334.9	26.3109
1336.29	19.1892
1337.68	15.1166
1339.07	14.6389
1340.46	17.2043
1341.85	23.2426
1343.24	29.033
1344.63	30.1283
1346.02	26.4079
1347.42	24.5225
1348.81	24.4841
1350.2	25.3074
1351.59	26.0504
1352.98	25.0179
1354.37	23.173
1355.76	23.8046
1357.15	25.9371
1358.54	25.1729
1359.93	20.7844
1361.32	16.493
1362.71	16.4549
1364.1	21.2743
1365.49	24.5722
1366.88	21.8345
1368.27	20.2587
1369.66	22.2516
1371.05	21.3108
1372.44	16.7556
1373.84	14.7431
1375.23	18.4874
1376.62	22.5084
1378.01	21.8262
1379.4	22.0406
1380.79	25.7943
1382.18	26.9531
1383.57	24.3417
1384.96	19.9926
1386.35	16.5497
1387.74	16.682
1389.13	19.2458
1390.52	20.2493
1391.91	18.8618
1393.3	13.9137
1394.69	10.0501
1396.08	10.0972
1397.47	9.11978
1398.86	11.0562
1400.25	15.1987
1401.65	16.9009
1403.04	14.9151
1404.43	12.8686
1405.82	16.8822
1407.21	21.7166
1408.6	20.7159
1409.99	17.6964
1411.38	16.5176
1412.77	16.7325
1414.16	16.2207
1415.55	13.84
1416.94	10.8973
1418.33	7.10972
1419.72	7.33785
1421.11	10.627
1422.5	10.8357
1423.89	11.7694
1425.28	15.9417
1426.67	17.0203
1428.07	12.5401
1429.46	10.3736
1430.85	11.2121
1432.24	11.7968
1433.63	11.4956
1435.02	7.5
1436.41	9.74088
1437.8	12.4862
1439.19	16.0903
1440.58	17.5992
1441.97	17.6574
1443.36	17.1642
1444.75	14.6053
1446.14	11.418
1447.53	11.1413
1448.92	13.7118
1450.31	12.895
1451.7	10.2805
1453.09	7.67658
1454.49	4.72249
1455.88	2.80532
1457.27	3.43448
1458.66	5.60022
1460.05	10.0002
1461.44	11.3407
1462.83	10.1381
1464.22	5.96871
1465.61	9.84961
1467	10.9239
1468.39	11.2205
1469.78	7.65213
1471.17	4.48882
1472.56	4.99081
1473.95	6.24555
1475.34	9.62881
1476.73	9.66877
1478.12	10.3651
1479.51	11.7837
1480.91	12.4986
1482.3	12.9923
1483.69	11.5858
1485.08	8.96267
1486.47	3.94527
1487.86	4.57051
1489.25	6.6909
1490.64	6.95947
1492.03	6.94725
1493.42	8.81026
1494.81	5.77185
1496.2	5.32755
1497.59	4.7856
1498.98	5.20515
1500.37	5.67721
1501.76	5.97864
1503.15	4.72648
1504.54	3.61008
1505.93	2.59278
1507.32	1.94819
1508.72	2.25996
1510.11	4.5142
1511.5	5.96316
1512.89	5.78026
1514.28	5.58088
1515.67	2.98374
1517.06	0.751107
1518.45	2.08665
1519.84	1.81302
1521.23	0.762636
1522.62	3.084
1524.01	3.94013
1525.4	3.29782
1526.79	3.43569
1528.18	5.13583
1529.57	5.21835
1530.96	2.02207
1532.35	0.572656
1533.74	1.15924
1535.14	0.688469
1536.53	0.247968
1537.92	0.0392375
1539.31	-0.386469
1540.7	-0.69468
1542.09	-0.0387628
1543.48	0.471292
1544.87	1.5739
1546.26	4.51209
1547.65	6.92065
1549.04	5.23116
1550.43	5.22707
1551.82	4.25691
1553.21	0.292104
1554.6	-0.610715
1555.99	0.768755
1557.38	-0.381461
1558.77	0.712024
1560.16	3.1097
1561.56	2.71107
1562.95	3.00018
1564.34	7.77906
1565.73	6.75669
1567.12	3.13943
1568.51	3.09913
1569.9	3.8639
1571.29	4.61059
1572.68	2.87882
1574.07	-0.757463
1575.46	-0.496558
1576.85	1.41576
1578.24	2.01483
1579.63	2.44786
1581.02	8.68411
1582.41	10.3209
1583.8	9.15708
1585.19	9.43305
1586.58	9.21356
1587.98	7.90522
1589.37	3.19146
1590.76	2.66539
1592.15	7.87046
1593.54	7.23753
1594.93	7.39726
1596.32	9.53253
1597.71	9.99023
